Ramp 10.00 °C/min to 250.00 °C,,
Time,Temperature,Heat Flow (Normalized)
min,°C,W/g
57.8833,374.79,-0.0636106
57.885,374.79,-0.0636027
57.8867,374.79,-0.0636013
57.8883,374.79,-0.0636018
57.89,374.79,-0.0636122
57.8917,374.79,-0.0636283
57.8933,374.79,-0.0636427
57.895,374.79,-0.0636556
57.8967,374.79,-0.0636646
57.8983,374.79,-0.0636675
57.9,374.79,-0.0636574
57.9017,374.79,-0.0636402
57.9033,374.789,-0.0636179
57.905,374.789,-0.0635924
57.9067,374.788,-0.0635622
57.9083,374.788,-0.0635343
57.91,374.787,-0.0635062
57.9117,374.786,-0.063467
57.9133,374.785,-0.0634277
57.915,374.784,-0.0633845
57.9167,374.783,-0.0633262
57.9183,374.782,-0.0632927
57.92,374.781,-0.0632588
57.9217,374.78,-0.0632241
57.9233,374.778,-0.0631878
57.925,374.776,-0.063157
57.9267,374.775,-0.0631459
57.9283,374.773,-0.0631467
57.93,374.77,-0.0631928
57.9317,374.768,-0.0634535
57.9333,374.765,-0.064206
57.935,374.763,-0.0657138
57.9367,374.76,-0.0690034
57.9383,374.757,-0.0744191
57.94,374.754,-0.0824302
57.9417,374.75,-0.0937
57.9433,374.747,-0.108219
57.945,374.743,-0.122624
57.9467,374.739,-0.1331
57.9483,374.735,-0.143593
57.95,374.731,-0.154189
57.9517,374.726,-0.165308
57.9533,374.721,-0.175878
57.955,374.716,-0.187947
57.9567,374.711,-0.198511
57.9583,374.705,-0.209909
57.96,374.7,-0.22165
57.9617,374.694,-0.234089
57.9633,374.688,-0.246781
57.965,374.682,-0.257583
57.9667,374.675,-0.270463
57.9683,374.668,-0.282062
57.97,374.661,-0.293149
57.9717,374.654,-0.304609
57.9733,374.647,-0.315309
57.975,374.639,-0.32545
57.9767,374.631,-0.334491
57.9783,374.623,-0.343163
57.98,374.615,-0.351716
57.9817,374.607,-0.360771
57.9833,374.598,-0.367545
57.985,374.589,-0.374111
57.9867,374.581,-0.380969
57.9883,374.572,-0.385911
57.99,374.563,-0.390718
57.9917,374.553,-0.395015
57.9933,374.544,-0.39837
57.995,374.534,-0.400092
57.9967,374.524,-0.402726
57.9983,374.514,-0.404273
58,374.504,-0.405598
58.0017,374.494,-0.406491
58.0033,374.484,-0.406195
58.005,374.473,-0.405836
58.0067,374.462,-0.404827
58.0083,374.452,-0.403487
58.01,374.441,-0.402008
58.0117,374.43,-0.398967
58.0133,374.418,-0.394937
58.015,374.407,-0.391037
58.0167,374.396,-0.38798
58.0183,374.385,-0.382946
58.02,374.373,-0.37951
58.0217,374.361,-0.374363
58.0233,374.349,-0.37036
58.025,374.338,-0.364927
58.0267,374.326,-0.358393
58.0283,374.315,-0.352705
58.03,374.303,-0.34916
58.0317,374.29,-0.344878
58.0333,374.278,-0.338806
58.035,374.265,-0.332154
58.0367,374.253,-0.325202
58.0383,374.24,-0.317794
58.04,374.228,-0.310485
58.0417,374.215,-0.304472
58.0433,374.202,-0.299124
58.045,374.189,-0.292591
58.0467,374.176,-0.285494
58.0483,374.163,-0.27813
58.05,374.15,-0.272779
58.0517,374.137,-0.266346
58.0533,374.124,-0.259685
58.055,374.11,-0.254086
58.0567,374.097,-0.247748
58.0583,374.084,-0.24153
58.06,374.07,-0.235679
58.0617,374.056,-0.230106
58.0633,374.043,-0.223761
58.065,374.029,-0.218274
58.0667,374.016,-0.210885
58.0683,374.002,-0.2051
58.07,373.988,-0.199276
58.0717,373.974,-0.192531
58.0733,373.961,-0.187281
58.075,373.946,-0.181047
58.0767,373.933,-0.175141
58.0783,373.919,-0.170055
58.08,373.905,-0.164853
58.0817,373.89,-0.159228
58.0833,373.876,-0.15448
58.085,373.861,-0.148666
58.0867,373.847,-0.143572
58.0883,373.833,-0.137656
58.09,373.818,-0.130737
58.0917,373.804,-0.125221
58.0933,373.79,-0.120304
58.095,373.775,-0.11467
58.0967,373.76,-0.109023
58.0983,373.746,-0.104512
58.1,373.731,-0.0990236
58.1017,373.716,-0.0934778
58.1033,373.701,-0.0879188
58.105,373.687,-0.0840459
58.1067,373.672,-0.0795009
58.1083,373.657,-0.0757933
58.11,373.642,-0.069847
58.1117,373.627,-0.0650381
58.1133,373.612,-0.0593568
58.115,373.597,-0.054877
58.1167,373.582,-0.0500473
58.1183,373.567,-0.0444376
58.12,373.552,-0.0399097
58.1217,373.537,-0.0350601
58.1233,373.522,-0.030314
58.125,373.506,-0.0259255
58.1267,373.491,-0.0227257
58.1283,373.476,-0.0194743
58.13,373.461,-0.015285
58.1317,373.445,-0.0107393
58.1333,373.43,-0.0079456
58.135,373.415,-0.00159055
58.1367,373.4,0.00232491
58.1383,373.384,0.0064777
58.14,373.369,0.0104988
58.1417,373.353,0.0152187
58.1433,373.337,0.0193258
58.145,373.322,0.0222342
58.1467,373.307,0.0250024
58.1483,373.291,0.0284753
58.15,373.276,0.0304456
58.1517,373.261,0.0333095
58.1533,373.245,0.0370236
58.155,373.229,0.0407511
58.1567,373.214,0.0448532
58.1583,373.198,0.0489535
58.16,373.182,0.052181
58.1617,373.167,0.0558019
58.1633,373.151,0.0591452
58.165,373.136,0.0623095
58.1667,373.12,0.0654072
58.1683,373.105,0.0689948
58.17,373.089,0.0728922
58.1717,373.074,0.075845
58.1733,373.058,0.0787821
58.175,373.042,0.0808011
58.1767,373.026,0.0828744
58.1783,373.01,0.0856818
58.18,372.994,0.0879681
58.1817,372.978,0.0899671
58.1833,372.963,0.0916048
58.185,372.947,0.0942833
58.1867,372.931,0.096064
58.1883,372.915,0.0982292
58.19,372.899,0.101162
58.1917,372.883,0.104711
58.1933,372.868,0.106102
58.195,372.852,0.108587
58.1967,372.836,0.109844
58.1983,372.82,0.112332
58.2,372.804,0.11552
58.2017,372.788,0.117774
58.2033,372.772,0.120732
58.205,372.756,0.123478
58.2067,372.74,0.1252
58.2083,372.723,0.126903
58.21,372.708,0.128393
58.2117,372.692,0.129041
58.2133,372.676,0.130824
58.215,372.657,0.131531
58.2167,372.643,0.133154
58.2183,372.628,0.13421
58.22,372.613,0.136041
58.2217,372.598,0.138716
58.2233,372.581,0.140424
58.225,372.565,0.143579
58.2267,372.549,0.146587
58.2283,372.532,0.14967
58.23,372.516,0.151084
58.2317,372.5,0.152648
58.2333,372.484,0.15377
58.235,372.468,0.15506
58.2367,372.452,0.155479
58.2383,372.436,0.156532
58.24,372.419,0.157373
58.2417,372.403,0.158484
58.2433,372.387,0.159727
58.245,372.371,0.162179
58.2467,372.355,0.164154
58.2483,372.339,0.165399
58.25,372.322,0.166616
58.2517,372.307,0.167491
58.2533,372.29,0.168252
58.255,372.274,0.169237
58.2567,372.258,0.170997
58.2583,372.242,0.172106
58.26,372.226,0.172796
58.2617,372.21,0.173269
58.2633,372.193,0.173807
58.265,372.177,0.174592
58.2667,372.161,0.175
58.2683,372.145,0.175882
58.27,372.129,0.176893
58.2717,372.113,0.177843
58.2733,372.097,0.179446
58.275,372.08,0.18094
58.2767,372.064,0.182166
58.2783,372.048,0.183313
58.28,372.032,0.184346
58.2817,372.016,0.185526
58.2833,371.999,0.186073
58.285,371.983,0.186461
58.2867,371.967,0.186526
58.2883,371.95,0.186812
58.29,371.934,0.187171
58.2917,371.918,0.18774
58.2933,371.902,0.188419
58.295,371.885,0.189199
58.2967,371.869,0.190233
58.2983,371.852,0.191655
58.3,371.837,0.193021
58.3017,371.821,0.194023
58.3033,371.804,0.19492
58.305,371.788,0.19598
58.3067,371.772,0.19694
58.3083,371.755,0.19787
58.31,371.739,0.198575
58.3117,371.723,0.199129
58.3133,371.707,0.199529
58.315,371.69,0.199965
58.3167,371.674,0.200354
58.3183,371.658,0.200694
58.32,371.642,0.201111
58.3217,371.626,0.20168
58.3233,371.609,0.202024
58.325,371.593,0.202499
58.3267,371.576,0.203105
58.3283,371.56,0.203897
58.33,371.544,0.204554
58.3317,371.528,0.205069
58.3333,371.511,0.205551
58.335,371.495,0.205954
58.3367,371.479,0.206357
58.3383,371.462,0.206825
58.34,371.446,0.207202
58.3417,371.43,0.207595
58.3433,371.413,0.207984
58.345,371.397,0.208391
58.3467,371.381,0.20886
58.3483,371.364,0.209489
58.35,371.348,0.210161
58.3517,371.332,0.21076
58.3533,371.316,0.211381
58.355,371.299,0.21193
58.3567,371.283,0.212371
58.3583,371.267,0.212737
58.36,371.25,0.21302
58.3617,371.234,0.213488
58.3633,371.217,0.213822
58.365,371.201,0.214111
58.3667,371.185,0.214483
58.3683,371.168,0.214991
58.37,371.152,0.215507
58.3717,371.136,0.216006
58.3733,371.12,0.216446
58.375,371.103,0.21689
58.3767,371.087,0.217207
58.3783,371.07,0.217518
58.38,371.054,0.217699
58.3817,371.038,0.217789
58.3833,371.021,0.217897
58.385,371.005,0.218124
58.3867,370.989,0.218403
58.3883,370.972,0.218694
58.39,370.956,0.218993
58.3917,370.94,0.21921
58.3933,370.923,0.219465
58.395,370.907,0.219736
58.3967,370.89,0.220057
58.3983,370.874,0.220251
58.4,370.858,0.220418
58.4017,370.841,0.220567
58.4033,370.825,0.220714
58.405,370.809,0.220862
58.4067,370.792,0.220984
58.4083,370.776,0.221102
58.41,370.76,0.221191
58.4117,370.743,0.221277
58.4133,370.727,0.221402
58.415,370.71,0.221588
58.4167,370.694,0.22185
58.4183,370.678,0.222099
58.42,370.661,0.222323
58.4217,370.645,0.222725
58.4233,370.628,0.223275
58.425,370.612,0.223666
58.4267,370.596,0.223934
58.4283,370.579,0.22415
58.43,370.563,0.224315
58.4317,370.546,0.224413
58.4333,370.53,0.224517
58.435,370.513,0.224618
58.4367,370.497,0.224675
58.4383,370.48,0.224729
58.44,370.464,0.2248
58.4417,370.448,0.224909
58.4433,370.431,0.225058
58.445,370.415,0.22517
58.4467,370.399,0.22535
58.4483,370.382,0.225563
58.45,370.366,0.225736
58.4517,370.349,0.225988
58.4533,370.333,0.226307
58.455,370.316,0.226542
58.4567,370.3,0.226803
58.4583,370.284,0.227085
58.46,370.267,0.227294
58.4617,370.251,0.227432
58.4633,370.235,0.227552
58.465,370.218,0.227629
58.4667,370.202,0.227695
58.4683,370.185,0.227763
58.47,370.169,0.227837
58.4717,370.152,0.227913
58.4733,370.136,0.228009
58.475,370.12,0.228129
58.4767,370.103,0.22824
58.4783,370.087,0.228437
58.48,370.07,0.228698
58.4817,370.053,0.229009
58.4833,370.037,0.229311
58.485,370.021,0.229505
58.4867,370.005,0.229642
58.4883,369.988,0.229835
58.49,369.972,0.230014
58.4917,369.955,0.230112
58.4933,369.939,0.230193
58.495,369.922,0.230276
58.4967,369.906,0.230363
58.4983,369.889,0.230474
58.5,369.873,0.230562
58.5017,369.856,0.230646
58.5033,369.839,0.230733
58.505,369.823,0.23085
58.5067,369.807,0.231007
58.5083,369.79,0.231165
58.51,369.774,0.231294
58.5117,369.757,0.231416
58.5133,369.741,0.231557
58.515,369.725,0.231752
58.5167,369.708,0.231874
58.5183,369.692,0.231971
58.52,369.675,0.232068
58.5217,369.659,0.232158
58.5233,369.642,0.232251
58.525,369.626,0.232431
58.5267,369.609,0.232625
58.5283,369.593,0.232732
58.53,369.576,0.232818
58.5317,369.559,0.232909
58.5333,369.543,0.233023
58.535,369.527,0.233161
58.5367,369.51,0.233292
58.5383,369.494,0.233396
58.54,369.478,0.233501
58.5417,369.461,0.233606
58.5433,369.445,0.233756
58.545,369.429,0.233897
58.5467,369.412,0.233991
58.5483,369.396,0.234081
58.55,369.379,0.234181
58.5517,369.363,0.23429
58.5533,369.346,0.234518
58.555,369.33,0.234723
58.5567,369.313,0.234878
58.5583,369.297,0.234989
58.56,369.28,0.235101
58.5617,369.264,0.235212
58.5633,369.247,0.235318
58.565,369.231,0.235417
58.5667,369.214,0.235517
58.5683,369.197,0.235615
58.57,369.181,0.235701
58.5717,369.164,0.235796
58.5733,369.148,0.235893
58.575,369.132,0.235989
58.5767,369.114,0.236085
58.5783,369.099,0.236174
58.58,369.082,0.236257
58.5817,369.066,0.236351
58.5833,369.05,0.236449
58.585,369.034,0.236553
58.5867,369.016,0.236684
58.5883,369,0.236799
58.59,368.984,0.236908
58.5917,368.967,0.237015
58.5933,368.951,0.237122
58.595,368.934,0.237239
58.5967,368.917,0.237361
58.5983,368.901,0.23748
58.6,368.885,0.237598
58.6017,368.868,0.237734
58.6033,368.852,0.237853
58.605,368.836,0.238004
58.6067,368.819,0.238125
58.6083,368.803,0.238233
58.61,368.786,0.238326
58.6117,368.77,0.238413
58.6133,368.753,0.238501
58.615,368.737,0.238589
58.6167,368.72,0.238683
58.6183,368.704,0.23877
58.62,368.687,0.238861
58.6217,368.671,0.238962
58.6233,368.654,0.239077
58.625,368.638,0.239207
58.6267,368.621,0.239325
58.6283,368.605,0.239439
58.63,368.588,0.239546
58.6317,368.572,0.239648
58.6333,368.556,0.239746
58.635,368.539,0.239843
58.6367,368.522,0.239933
58.6383,368.505,0.240018
58.64,368.489,0.240107
58.6417,368.472,0.240193
58.6433,368.456,0.240285
58.645,368.439,0.240382
58.6467,368.423,0.240482
58.6483,368.406,0.240585
58.65,368.39,0.240693
58.6517,368.373,0.240797
58.6533,368.357,0.240907
58.655,368.341,0.241011
58.6567,368.324,0.241106
58.6583,368.307,0.241201
58.66,368.291,0.241304
58.6617,368.274,0.241412
58.6633,368.257,0.241519
58.665,368.241,0.241624
58.6667,368.224,0.241728
58.6683,368.208,0.241836
58.67,368.192,0.24194
58.6717,368.175,0.242047
58.6733,368.158,0.242154
58.675,368.142,0.242257
58.6767,368.125,0.242357
58.6783,368.109,0.242455
58.68,368.093,0.24255
58.6817,368.076,0.242647
58.6833,368.06,0.242748
58.685,368.043,0.242853
58.6867,368.027,0.242962
58.6883,368.01,0.243068
58.69,367.994,0.243186
58.6917,367.977,0.243328
58.6933,367.961,0.243522
58.695,367.944,0.243669
58.6967,367.927,0.243793
58.6983,367.911,0.24391
58.7,367.894,0.244028
58.7017,367.878,0.244134
58.7033,367.861,0.244237
58.705,367.845,0.244347
58.7067,367.828,0.244453
58.7083,367.812,0.244562
58.71,367.795,0.244676
58.7117,367.779,0.244785
58.7133,367.762,0.244889
58.715,367.746,0.244984
58.7167,367.729,0.245088
58.7183,367.713,0.245191
58.72,367.696,0.245292
58.7217,367.68,0.245392
58.7233,367.663,0.245499
58.725,367.647,0.245611
58.7267,367.631,0.245712
58.7283,367.615,0.245818
58.73,367.598,0.245926
58.7317,367.581,0.246022
58.7333,367.565,0.246119
58.735,367.549,0.246214
58.7367,367.533,0.246313
58.7383,367.516,0.246409
58.74,367.499,0.246497
58.7417,367.482,0.246583
58.7433,367.466,0.246684
58.745,367.449,0.246787
58.7467,367.432,0.246895
58.7483,367.416,0.246996
58.75,367.4,0.247097
58.7517,367.383,0.247193
58.7533,367.367,0.247286
58.755,367.35,0.247371
58.7567,367.333,0.247453
58.7583,367.317,0.247534
58.76,367.3,0.247619
58.7617,367.283,0.247701
58.7633,367.267,0.247791
58.765,367.25,0.247886
58.7667,367.234,0.247984
58.7683,367.218,0.248088
58.77,367.201,0.248189
58.7717,367.185,0.248296
58.7733,367.168,0.248401
58.775,367.152,0.248503
58.7767,367.135,0.248598
58.7783,367.118,0.248691
58.78,367.102,0.248786
58.7817,367.086,0.248877
58.7833,367.069,0.248971
58.785,367.052,0.249068
58.7867,367.036,0.249167
58.7883,367.019,0.249266
58.79,367.002,0.249366
58.7917,366.986,0.249454
58.7933,366.969,0.24954
58.795,366.953,0.249623
58.7967,366.936,0.249709
58.7983,366.92,0.249787
58.8,366.903,0.249869
58.8017,366.886,0.24996
58.8033,366.87,0.250063
58.805,366.853,0.250167
58.8067,366.837,0.250275
58.8083,366.82,0.250377
58.81,366.804,0.250472
58.8117,366.787,0.250568
58.8133,366.77,0.250659
58.815,366.753,0.250756
58.8167,366.737,0.250855
58.8183,366.72,0.250957
58.82,366.704,0.251058
58.8217,366.688,0.251155
58.8233,366.67,0.25126
58.825,366.655,0.251357
58.8267,366.638,0.251451
58.8283,366.622,0.251532
58.83,366.606,0.251606
58.8317,366.59,0.25168
58.8333,366.572,0.251747
58.835,366.556,0.251816
58.8367,366.539,0.251895
58.8383,366.523,0.251979
58.84,366.506,0.252062
58.8417,366.489,0.252154
58.8433,366.473,0.252247
58.845,366.456,0.252346
58.8467,366.439,0.252444
58.8483,366.423,0.252545
58.85,366.407,0.252645
58.8517,366.39,0.252746
58.8533,366.374,0.252844
58.855,366.357,0.252932
58.8567,366.34,0.253016
58.8583,366.324,0.253103
58.86,366.308,0.25319
58.8617,366.291,0.253288
58.8633,366.274,0.253394
58.865,366.257,0.253493
58.8667,366.241,0.25359
58.8683,366.224,0.253683
58.87,366.207,0.253774
58.8717,366.191,0.25386
58.8733,366.175,0.253937
58.875,366.159,0.254006
58.8767,366.142,0.254066
58.8783,366.126,0.254123
58.88,366.109,0.254193
58.8817,366.092,0.254268
58.8833,366.076,0.25434
58.885,366.059,0.254416
58.8867,366.043,0.254487
58.8883,366.026,0.254555
58.89,366.009,0.254614
58.8917,365.993,0.254667
58.8933,365.976,0.254723
58.895,365.96,0.254783
58.8967,365.944,0.254839
58.8983,365.927,0.254912
58.9,365.91,0.254988
58.9017,365.893,0.255076
58.9033,365.877,0.255162
58.905,365.86,0.255249
58.9067,365.843,0.255334
58.9083,365.827,0.255404
58.91,365.811,0.255467
58.9117,365.794,0.255534
58.9133,365.777,0.255608
58.915,365.761,0.255684
58.9167,365.745,0.255753
58.9183,365.728,0.255818
58.92,365.712,0.255878
58.9217,365.695,0.255934
58.9233,365.678,0.255995
58.925,365.662,0.256061
58.9267,365.645,0.256131
58.9283,365.629,0.256196
58.93,365.612,0.256259
58.9317,365.595,0.256322
58.9333,365.579,0.256386
58.935,365.563,0.256446
58.9367,365.546,0.256509
58.9383,365.53,0.256574
58.94,365.513,0.256648
58.9417,365.496,0.256724
58.9433,365.48,0.256798
58.945,365.463,0.256887
58.9467,365.447,0.256971
58.9483,365.43,0.257049
58.95,365.413,0.257129
58.9517,365.397,0.257208
58.9533,365.38,0.257281
58.955,365.364,0.257345
58.9567,365.347,0.257403
58.9583,365.33,0.257461
58.96,365.314,0.257518
58.9617,365.297,0.257585
58.9633,365.281,0.257657
58.965,365.264,0.257726
58.9667,365.247,0.257796
58.9683,365.231,0.257867
58.97,365.214,0.25793
58.9717,365.197,0.257991
58.9733,365.181,0.258055
58.975,365.164,0.258112
58.9767,365.148,0.258163
58.9783,365.132,0.258214
58.98,365.115,0.258269
58.9817,365.098,0.258321
58.9833,365.082,0.258378
58.985,365.065,0.258441
58.9867,365.048,0.258494
58.9883,365.032,0.258549
58.99,365.015,0.25861
58.9917,364.999,0.25867
58.9933,364.982,0.258732
58.995,364.965,0.258797
58.9967,364.949,0.258864
58.9983,364.932,0.258932
59,364.916,0.259003
59.0017,364.899,0.259065
59.0033,364.882,0.259135
59.005,364.866,0.259199
59.0067,364.849,0.259261
59.0083,364.833,0.259318
59.01,364.816,0.259375
59.0117,364.799,0.259433
59.0133,364.783,0.259492
59.015,364.766,0.259553
59.0167,364.75,0.259616
59.0183,364.733,0.259676
59.02,364.717,0.259737
59.0217,364.7,0.259798
59.0233,364.684,0.259862
59.025,364.667,0.25992
59.0267,364.651,0.259979
59.0283,364.634,0.260028
59.03,364.617,0.260084
59.0317,364.601,0.260139
59.0333,364.584,0.26019
59.035,364.568,0.260245
59.0367,364.551,0.260297
59.0383,364.535,0.260358
59.04,364.518,0.260416
59.0417,364.501,0.260484
59.0433,364.485,0.260553
59.045,364.468,0.260623
59.0467,364.452,0.260692
59.0483,364.435,0.260757
59.05,364.418,0.260819
59.0517,364.401,0.260877
59.0533,364.384,0.260939
59.055,364.368,0.260997
59.0567,364.352,0.261049
59.0583,364.335,0.261092
59.06,364.318,0.261135
59.0617,364.302,0.261171
59.0633,364.285,0.261209
59.065,364.269,0.261251
59.0667,364.252,0.261307
59.0683,364.236,0.261371
59.07,364.219,0.26143
59.0717,364.203,0.261485
59.0733,364.186,0.261545
59.075,364.169,0.2616
59.0767,364.153,0.261652
59.0783,364.136,0.2617
59.08,364.119,0.261746
59.0817,364.103,0.261794
59.0833,364.086,0.261835
59.085,364.07,0.261883
59.0867,364.053,0.261937
59.0883,364.037,0.261996
59.09,364.02,0.262049
59.0917,364.003,0.262094
59.0933,363.987,0.262134
59.095,363.97,0.262181
59.0967,363.954,0.262233
59.0983,363.937,0.262283
59.1,363.921,0.26234
59.1017,363.904,0.262397
59.1033,363.887,0.262452
59.105,363.871,0.262504
59.1067,363.854,0.262556
59.1083,363.838,0.262614
59.11,363.822,0.262662
59.1117,363.805,0.262701
59.1133,363.789,0.262741
59.115,363.772,0.262781
59.1167,363.755,0.26282
59.1183,363.739,0.262865
59.12,363.722,0.262906
59.1217,363.705,0.262946
59.1233,363.689,0.262992
59.125,363.671,0.263041
59.1267,363.654,0.263087
59.1283,363.638,0.263135
59.13,363.621,0.263181
59.1317,363.605,0.26322
59.1333,363.585,0.263257
59.135,363.571,0.263298
59.1367,363.555,0.263341
59.1383,363.539,0.26338
59.14,363.523,0.263404
59.1417,363.507,0.263431
59.1433,363.489,0.263464
59.145,363.473,0.263503
59.1467,363.457,0.263539
59.1483,363.44,0.263575
59.15,363.423,0.26361
59.1517,363.407,0.263649
59.1533,363.39,0.263695
59.155,363.373,0.263743
59.1567,363.357,0.263785
59.1583,363.34,0.263833
59.16,363.323,0.263887
59.1617,363.307,0.263933
59.1633,363.29,0.263983
59.165,363.273,0.264025
59.1667,363.257,0.264063
59.1683,363.24,0.2641
59.17,363.224,0.264133
59.1717,363.207,0.264169
59.1733,363.19,0.264205
59.175,363.174,0.26424
59.1767,363.157,0.264275
59.1783,363.141,0.264313
59.18,363.124,0.264346
