Ramp 10.00 °C/min to 250.00 °C,,
Time,Temperature,Heat Flow (Normalized)
min,°C,W/g
22.51,374.708,-0.34997
22.5117,374.708,-0.349967
22.5133,374.708,-0.349961
22.515,374.708,-0.349959
22.5167,374.708,-0.349962
22.5183,374.708,-0.349964
22.52,374.708,-0.349963
22.5217,374.708,-0.349959
22.5233,374.708,-0.349949
22.525,374.707,-0.349947
22.5267,374.707,-0.349946
22.5283,374.707,-0.349942
22.53,374.706,-0.349942
22.5317,374.706,-0.34994
22.5333,374.706,-0.349927
22.535,374.705,-0.349913
22.5367,374.705,-0.34989
22.5383,374.704,-0.349855
22.54,374.703,-0.349788
22.5417,374.702,-0.349715
22.5433,374.701,-0.349669
22.545,374.7,-0.349605
22.5467,374.699,-0.349561
22.5483,374.697,-0.349483
22.55,374.696,-0.349407
22.5517,374.695,-0.349332
22.5533,374.693,-0.349234
22.555,374.691,-0.349182
22.5567,374.689,-0.349108
22.5583,374.687,-0.349004
22.56,374.685,-0.348924
22.5617,374.682,-0.348869
22.5633,374.68,-0.348814
22.565,374.677,-0.34877
22.5667,374.674,-0.348739
22.5683,374.671,-0.348718
22.57,374.668,-0.348702
22.5717,374.665,-0.348703
22.5733,374.662,-0.348727
22.575,374.658,-0.348809
22.5767,374.654,-0.349024
22.5783,374.65,-0.349346
22.58,374.646,-0.350022
22.5817,374.641,-0.350889
22.5833,374.637,-0.352037
22.585,374.632,-0.353791
22.5867,374.626,-0.355605
22.5883,374.621,-0.35735
22.59,374.616,-0.359396
22.5917,374.61,-0.361528
22.5933,374.604,-0.363535
22.595,374.598,-0.36573
22.5967,374.592,-0.367354
22.5983,374.585,-0.368505
22.6,374.578,-0.369479
22.6017,374.571,-0.370205
22.6033,374.564,-0.370779
22.605,374.557,-0.371156
22.6067,374.549,-0.371357
22.6083,374.542,-0.371446
22.61,374.534,-0.371448
22.6117,374.526,-0.37143
22.6133,374.518,-0.371337
22.615,374.509,-0.371243
22.6167,374.501,-0.371193
22.6183,374.492,-0.371104
22.62,374.483,-0.370884
22.6217,374.474,-0.370173
22.6233,374.464,-0.368589
22.625,374.455,-0.365697
22.6267,374.445,-0.360317
22.6283,374.435,-0.352598
22.63,374.426,-0.344845
22.6317,374.415,-0.336819
22.6333,374.405,-0.328784
22.635,374.395,-0.320317
22.6367,374.384,-0.312286
22.6383,374.374,-0.306357
22.64,374.363,-0.298889
22.6417,374.352,-0.289959
22.6433,374.341,-0.282961
22.645,374.33,-0.276695
22.6467,374.318,-0.269619
22.6483,374.307,-0.263302
22.65,374.296,-0.255799
22.6517,374.284,-0.249607
22.6533,374.272,-0.242406
22.655,374.26,-0.238222
22.6567,374.248,-0.231886
22.6583,374.236,-0.225316
22.66,374.224,-0.21883
22.6617,374.212,-0.211604
22.6633,374.2,-0.204311
22.665,374.187,-0.198783
22.6667,374.175,-0.192404
22.6683,374.162,-0.184007
22.67,374.149,-0.177508
22.6717,374.137,-0.170792
22.6733,374.123,-0.166051
22.675,374.111,-0.16001
22.6767,374.097,-0.154734
22.6783,374.085,-0.149622
22.68,374.072,-0.143489
22.6817,374.058,-0.136822
22.6833,374.045,-0.130782
22.685,374.032,-0.123836
22.6867,374.018,-0.11748
22.6883,374.005,-0.111275
22.69,373.991,-0.105909
22.6917,373.978,-0.100936
22.6933,373.964,-0.094654
22.695,373.95,-0.090101
22.6967,373.936,-0.0854021
22.6983,373.922,-0.0807297
22.7,373.908,-0.0763488
22.7017,373.894,-0.0707945
22.7033,373.88,-0.0658698
22.705,373.866,-0.0611807
22.7067,373.852,-0.0563308
22.7083,373.838,-0.0514399
22.71,373.823,-0.0468347
22.7117,373.809,-0.0415201
22.7133,373.795,-0.0361628
22.715,373.78,-0.0317018
22.7167,373.766,-0.0274903
22.7183,373.751,-0.0222421
22.72,373.736,-0.0188104
22.7217,373.722,-0.0138229
22.7233,373.707,-0.0098866
22.725,373.693,-0.00630766
22.7267,373.678,-0.00297263
22.7283,373.663,0.0017105
22.73,373.648,0.00542202
22.7317,373.633,0.00948716
22.7333,373.618,0.0134272
22.735,373.604,0.0176166
22.7367,373.589,0.0204799
22.7383,373.574,0.0257482
22.74,373.559,0.0310602
22.7417,373.544,0.0342407
22.7433,373.529,0.0374796
22.745,373.513,0.0417134
22.7467,373.498,0.0461749
22.7483,373.483,0.0476278
22.75,373.468,0.0504004
22.7517,373.453,0.0547525
22.7533,373.438,0.0571024
22.755,373.422,0.0595307
22.7567,373.407,0.0620376
22.7583,373.392,0.0656682
22.76,373.376,0.0685235
22.7617,373.361,0.0723447
22.7633,373.346,0.0752673
22.765,373.33,0.0772238
22.7667,373.315,0.0786564
22.7683,373.299,0.0824298
22.77,373.283,0.0872426
22.7717,373.268,0.090031
22.7733,373.253,0.0927612
22.775,373.237,0.0958361
22.7767,373.221,0.0975723
22.7783,373.206,0.100195
22.78,373.19,0.103504
22.7817,373.174,0.10544
22.7833,373.159,0.107246
22.785,373.143,0.10928
22.7867,373.128,0.111299
22.7883,373.112,0.114425
22.79,373.096,0.116382
22.7917,373.081,0.119056
22.7933,373.065,0.122005
22.795,373.049,0.124219
22.7967,373.033,0.127193
22.7983,373.018,0.129559
22.8,373.002,0.129753
22.8017,372.986,0.131268
22.8033,372.97,0.133302
22.805,372.954,0.136181
22.8067,372.939,0.137856
22.8083,372.923,0.139079
22.81,372.906,0.140525
22.8117,372.891,0.143084
22.8133,372.875,0.145121
22.815,372.859,0.147281
22.8167,372.843,0.149503
22.8183,372.827,0.150919
22.82,372.811,0.152069
22.8217,372.795,0.153172
22.8233,372.78,0.154854
22.825,372.763,0.155574
22.8267,372.747,0.156894
22.8283,372.732,0.157242
22.83,372.716,0.158114
22.8317,372.7,0.159363
22.8333,372.684,0.16105
22.835,372.667,0.163434
22.8367,372.651,0.165727
22.8383,372.635,0.167781
22.84,372.619,0.169317
22.8417,372.603,0.171558
22.8433,372.587,0.173384
22.845,372.571,0.174471
22.8467,372.555,0.17511
22.8483,372.539,0.175681
22.85,372.523,0.176592
22.8517,372.507,0.177659
22.8533,372.49,0.178243
22.855,372.474,0.178842
22.8567,372.459,0.179665
22.8583,372.443,0.18017
22.86,372.427,0.1806
22.8617,372.41,0.181014
22.8633,372.394,0.181401
22.865,372.378,0.182217
22.8667,372.362,0.183475
22.8683,372.346,0.184942
22.87,372.33,0.186857
22.8717,372.314,0.188421
22.8733,372.297,0.190222
22.875,372.281,0.191892
22.8767,372.265,0.193561
22.8783,372.249,0.19475
22.88,372.233,0.195465
22.8817,372.216,0.196124
22.8833,372.2,0.196189
22.885,372.184,0.196377
22.8867,372.168,0.196506
22.8883,372.152,0.196702
22.89,372.136,0.197002
22.8917,372.119,0.197437
22.8933,372.103,0.197896
22.895,372.087,0.198336
22.8967,372.071,0.198942
22.8983,372.054,0.199666
22.9,372.038,0.200813
22.9017,372.022,0.202225
22.9033,372.006,0.203094
22.905,371.989,0.20379
22.9067,371.973,0.204425
22.9083,371.957,0.205014
22.91,371.941,0.205625
22.9117,371.925,0.206091
22.9133,371.909,0.206623
22.915,371.892,0.207232
22.9167,371.876,0.207702
22.9183,371.86,0.208218
22.92,371.844,0.208904
22.9217,371.828,0.209478
22.9233,371.811,0.209976
22.925,371.795,0.210483
22.9267,371.779,0.210846
22.9283,371.762,0.211195
22.93,371.746,0.211531
22.9317,371.73,0.21185
22.9333,371.714,0.212367
22.935,371.697,0.213079
22.9367,371.681,0.213702
22.9383,371.665,0.214261
22.94,371.648,0.214939
22.9417,371.632,0.215635
22.9433,371.616,0.216575
22.945,371.6,0.217386
22.9467,371.583,0.217885
22.9483,371.567,0.218222
22.95,371.551,0.218404
22.9517,371.534,0.218632
22.9533,371.518,0.218852
22.955,371.502,0.219149
22.9567,371.486,0.21949
22.9583,371.469,0.219829
22.96,371.453,0.220192
22.9617,371.437,0.220502
22.9633,371.42,0.220896
22.965,371.404,0.22112
22.9667,371.388,0.221303
22.9683,371.372,0.22147
22.97,371.355,0.221631
22.9717,371.339,0.221828
22.9733,371.322,0.222047
22.975,371.306,0.222304
22.9767,371.29,0.22265
22.9783,371.273,0.222994
22.98,371.257,0.223325
22.9817,371.241,0.223636
22.9833,371.225,0.224039
22.985,371.209,0.224429
22.9867,371.192,0.224838
22.9883,371.176,0.225261
22.99,371.159,0.225615
22.9917,371.143,0.225947
22.9933,371.127,0.226383
22.995,371.11,0.226962
22.9967,371.094,0.22734
22.9983,371.078,0.227586
23,371.062,0.227881
23.0017,371.045,0.228118
23.0033,371.029,0.228406
23.005,371.013,0.22867
23.0067,370.996,0.228927
23.0083,370.98,0.229111
23.01,370.964,0.229305
23.0117,370.947,0.229503
23.0133,370.931,0.229724
23.015,370.914,0.229898
23.0167,370.898,0.230034
23.0183,370.881,0.230119
23.02,370.865,0.230217
23.0217,370.849,0.230322
23.0233,370.833,0.230417
23.025,370.816,0.230586
23.0267,370.8,0.230724
23.0283,370.784,0.230822
23.03,370.768,0.231037
23.0317,370.751,0.231312
23.0333,370.735,0.231567
23.035,370.718,0.231881
23.0367,370.702,0.232126
23.0383,370.686,0.232378
23.04,370.669,0.232598
23.0417,370.653,0.232781
23.0433,370.637,0.23295
23.045,370.621,0.233124
23.0467,370.604,0.233302
23.0483,370.588,0.233556
23.05,370.571,0.233846
23.0517,370.555,0.234226
23.0533,370.539,0.234545
23.055,370.522,0.234948
23.0567,370.505,0.235303
23.0583,370.489,0.235654
23.06,370.472,0.235961
23.0617,370.456,0.236166
23.0633,370.44,0.236318
23.065,370.423,0.236393
23.0667,370.407,0.236776
23.0683,370.391,0.237112
23.07,370.375,0.237182
23.0717,370.358,0.237252
23.0733,370.342,0.237329
23.075,370.325,0.237403
23.0767,370.309,0.23748
23.0783,370.292,0.237713
23.08,370.276,0.237964
23.0817,370.259,0.238261
23.0833,370.243,0.238568
23.085,370.227,0.238947
23.0867,370.21,0.239148
23.0883,370.194,0.239261
23.09,370.178,0.239346
23.0917,370.161,0.239473
23.0933,370.145,0.239556
23.095,370.129,0.23964
23.0967,370.112,0.239725
23.0983,370.096,0.239815
23.1,370.079,0.239939
23.1017,370.063,0.240145
23.1033,370.046,0.240442
23.105,370.03,0.240705
23.1067,370.013,0.240903
23.1083,369.997,0.241033
23.11,369.98,0.241138
23.1117,369.964,0.241228
23.1133,369.948,0.241315
23.115,369.931,0.241401
23.1167,369.915,0.241489
23.1183,369.899,0.241596
23.12,369.883,0.241778
23.1217,369.866,0.241996
23.1233,369.849,0.242247
23.125,369.833,0.242445
23.1267,369.817,0.242598
23.1283,369.801,0.242727
23.13,369.784,0.242827
23.1317,369.767,0.242925
23.1333,369.751,0.243022
23.135,369.735,0.243129
23.1367,369.718,0.243263
23.1383,369.702,0.243372
23.14,369.685,0.243514
23.1417,369.669,0.243765
23.1433,369.652,0.244065
23.145,369.635,0.244299
23.1467,369.619,0.244502
23.1483,369.603,0.244684
23.15,369.587,0.244898
23.1517,369.57,0.245012
23.1533,369.554,0.245125
23.155,369.537,0.24524
23.1567,369.521,0.245347
23.1583,369.504,0.245456
23.16,369.488,0.245615
23.1617,369.471,0.245771
23.1633,369.455,0.245926
23.165,369.438,0.246045
23.1667,369.422,0.246155
23.1683,369.405,0.246272
23.17,369.389,0.246394
23.1717,369.372,0.246516
23.1733,369.356,0.246636
23.175,369.34,0.246745
23.1767,369.323,0.246856
23.1783,369.307,0.246966
23.18,369.291,0.247079
23.1817,369.274,0.247203
23.1833,369.257,0.247327
23.185,369.241,0.247449
23.1867,369.225,0.247573
23.1883,369.208,0.247701
23.19,369.191,0.247844
23.1917,369.175,0.247986
23.1933,369.159,0.248164
23.195,369.143,0.248326
23.1967,369.126,0.248443
23.1983,369.109,0.248597
23.2,369.093,0.248717
23.2017,369.076,0.248838
23.2033,369.06,0.248957
23.205,369.044,0.249081
23.2067,369.027,0.249208
23.2083,369.011,0.249333
23.21,368.995,0.249466
23.2117,368.978,0.249595
23.2133,368.962,0.24972
23.215,368.945,0.249837
23.2167,368.929,0.249951
23.2183,368.912,0.250069
23.22,368.896,0.25019
23.2217,368.879,0.250311
23.2233,368.862,0.250435
23.225,368.846,0.250567
23.2267,368.829,0.250705
23.2283,368.813,0.25084
23.23,368.796,0.250973
23.2317,368.78,0.251101
23.2333,368.764,0.251222
23.235,368.747,0.251339
23.2367,368.731,0.251458
23.2383,368.714,0.251585
23.24,368.698,0.251713
23.2417,368.681,0.251841
23.2433,368.665,0.251974
23.245,368.648,0.252098
23.2467,368.632,0.252221
23.2483,368.615,0.252346
23.25,368.599,0.25247
23.2517,368.583,0.252596
23.2533,368.566,0.252722
23.255,368.55,0.252849
23.2567,368.533,0.252979
23.2583,368.517,0.25311
23.26,368.5,0.253238
23.2617,368.484,0.253368
23.2633,368.467,0.253507
23.265,368.451,0.253687
23.2667,368.434,0.25384
23.2683,368.418,0.253978
23.27,368.401,0.254113
23.2717,368.384,0.254245
23.2733,368.368,0.254381
23.275,368.352,0.254509
23.2767,368.336,0.254621
23.2783,368.319,0.254723
23.28,368.302,0.254827
23.2817,368.286,0.254929
23.2833,368.269,0.255033
23.285,368.253,0.255149
23.2867,368.237,0.255277
23.2883,368.22,0.255415
23.29,368.203,0.255554
23.2917,368.187,0.255732
23.2933,368.171,0.255958
23.295,368.154,0.25611
23.2967,368.137,0.256249
23.2983,368.121,0.256385
23.3,368.104,0.256521
23.3017,368.087,0.25665
23.3033,368.072,0.256778
23.305,368.055,0.25691
23.3067,368.039,0.257041
23.3083,368.022,0.257174
23.31,368.005,0.257307
23.3117,367.989,0.257441
23.3133,367.972,0.257576
23.315,367.956,0.257714
23.3167,367.94,0.257849
23.3183,367.923,0.257986
23.32,367.907,0.258121
23.3217,367.89,0.258251
23.3233,367.873,0.258374
23.325,367.857,0.258499
23.3267,367.841,0.258633
23.3283,367.824,0.258771
23.33,367.808,0.258915
23.3317,367.791,0.259058
23.3333,367.774,0.259205
23.335,367.758,0.259343
23.3367,367.742,0.25948
23.3383,367.725,0.259619
23.34,367.709,0.259751
23.3417,367.692,0.259882
23.3433,367.676,0.260012
23.345,367.659,0.260139
23.3467,367.643,0.260271
23.3483,367.626,0.260406
23.35,367.61,0.26054
23.3517,367.593,0.260668
23.3533,367.577,0.260787
23.355,367.561,0.260907
23.3567,367.544,0.261029
23.3583,367.528,0.261147
23.36,367.511,0.261261
23.3617,367.495,0.261372
23.3633,367.478,0.261491
23.365,367.462,0.261612
23.3667,367.445,0.261732
23.3683,367.429,0.261855
23.37,367.412,0.261977
23.3717,367.396,0.262105
23.3733,367.379,0.262233
23.375,367.362,0.262371
23.3767,367.346,0.262519
23.3783,367.329,0.262655
23.38,367.313,0.262784
23.3817,367.297,0.262915
23.3833,367.28,0.263037
23.385,367.263,0.263151
23.3867,367.247,0.263264
23.3883,367.23,0.263373
23.39,367.214,0.263492
23.3917,367.197,0.26362
23.3933,367.18,0.26375
23.395,367.164,0.263885
23.3967,367.147,0.264022
23.3983,367.131,0.264154
23.4,367.114,0.264283
23.4017,367.097,0.264404
23.4033,367.081,0.264524
23.405,367.065,0.26464
23.4067,367.048,0.26475
23.4083,367.032,0.264856
23.41,367.015,0.264972
23.4117,366.999,0.265085
23.4133,366.982,0.265199
23.415,366.966,0.265324
23.4167,366.949,0.265456
23.4183,366.933,0.265585
23.42,366.916,0.265713
23.4217,366.899,0.265845
23.4233,366.883,0.265973
23.425,366.866,0.266101
23.4267,366.85,0.266225
23.4283,366.833,0.266346
23.43,366.816,0.266465
23.4317,366.8,0.266585
23.4333,366.784,0.266705
23.435,366.767,0.266826
23.4367,366.75,0.266956
23.4383,366.733,0.267091
23.44,366.717,0.26722
23.4417,366.701,0.267343
23.4433,366.684,0.26747
23.445,366.668,0.267596
23.4467,366.652,0.267729
23.4483,366.635,0.26786
23.45,366.618,0.267985
23.4517,366.602,0.268105
23.4533,366.585,0.26822
23.455,366.569,0.268335
23.4567,366.552,0.268445
23.4583,366.535,0.268552
23.46,366.519,0.268652
23.4617,366.503,0.268754
23.4633,366.486,0.268859
23.465,366.47,0.268968
23.4667,366.453,0.26908
23.4683,366.437,0.269202
23.47,366.42,0.269328
23.4717,366.404,0.269451
23.4733,366.387,0.269573
23.475,366.37,0.269688
23.4767,366.353,0.269803
23.4783,366.337,0.269915
23.48,366.321,0.270026
23.4817,366.304,0.270145
23.4833,366.288,0.270272
23.485,366.271,0.270401
23.4867,366.255,0.270535
23.4883,366.238,0.270672
23.49,366.221,0.270793
23.4917,366.205,0.270909
23.4933,366.188,0.271015
23.495,366.172,0.271121
23.4967,366.155,0.27122
23.4983,366.138,0.271317
23.5,366.122,0.271421
23.5017,366.105,0.271529
23.5033,366.089,0.271645
23.505,366.072,0.271755
23.5067,366.056,0.271859
23.5083,366.039,0.271969
23.51,366.022,0.272081
23.5117,366.006,0.27219
23.5133,365.99,0.272294
23.515,365.973,0.272405
23.5167,365.956,0.272517
23.5183,365.94,0.27263
23.52,365.923,0.272741
23.5217,365.906,0.272854
23.5233,365.89,0.272962
23.525,365.874,0.27307
23.5267,365.857,0.273186
23.5283,365.841,0.273301
23.53,365.824,0.27341
23.5317,365.808,0.273524
23.5333,365.791,0.273646
23.535,365.774,0.273767
23.5367,365.758,0.273886
23.5383,365.741,0.274006
23.54,365.725,0.274119
23.5417,365.708,0.274224
23.5433,365.691,0.274325
23.545,365.675,0.274422
23.5467,365.658,0.274526
23.5483,365.642,0.274632
23.55,365.625,0.274722
23.5517,365.609,0.274818
23.5533,365.592,0.274918
23.555,365.576,0.275018
23.5567,365.559,0.275125
23.5583,365.543,0.275233
23.56,365.526,0.275338
23.5617,365.509,0.275444
23.5633,365.493,0.275549
23.565,365.476,0.275643
23.5667,365.46,0.27573
23.5683,365.443,0.275808
23.57,365.426,0.275878
23.5717,365.41,0.275945
23.5733,365.393,0.276019
23.575,365.377,0.27609
23.5767,365.36,0.276171
23.5783,365.344,0.276269
23.58,365.328,0.276375
23.5817,365.311,0.276507
23.5833,365.294,0.276693
23.585,365.278,0.276845
23.5867,365.262,0.277001
23.5883,365.245,0.277119
23.59,365.228,0.277233
23.5917,365.212,0.277343
23.5933,365.195,0.277454
23.595,365.179,0.277564
23.5967,365.162,0.27767
23.5983,365.146,0.277766
23.6,365.129,0.277862
23.6017,365.112,0.277951
23.6033,365.096,0.278048
23.605,365.08,0.27815
23.6067,365.063,0.27824
23.6083,365.046,0.278321
23.61,365.03,0.278404
23.6117,365.013,0.278484
23.6133,364.997,0.278571
23.615,364.98,0.278656
23.6167,364.963,0.278735
23.6183,364.947,0.278819
23.62,364.93,0.278902
23.6217,364.914,0.278984
23.6233,364.897,0.279068
23.625,364.881,0.279154
23.6267,364.864,0.279239
23.6283,364.848,0.279336
23.63,364.831,0.279433
23.6317,364.814,0.279536
23.6333,364.797,0.279633
23.635,364.781,0.27973
23.6367,364.764,0.279823
23.6383,364.748,0.279916
23.64,364.731,0.280003
23.6417,364.715,0.280085
23.6433,364.698,0.280164
23.645,364.682,0.280236
23.6467,364.665,0.280301
23.6483,364.649,0.280371
23.65,364.632,0.280444
23.6517,364.616,0.280522
23.6533,364.599,0.280602
23.655,364.583,0.280695
23.6567,364.566,0.280794
23.6583,364.549,0.280899
23.66,364.533,0.281005
23.6617,364.516,0.281112
23.6633,364.5,0.281214
23.665,364.483,0.281305
23.6667,364.466,0.281391
23.6683,364.45,0.281472
23.67,364.433,0.281555
23.6717,364.417,0.281633
23.6733,364.4,0.281705
23.675,364.383,0.281775
23.6767,364.367,0.281852
23.6783,364.351,0.281928
23.68,364.334,0.282008
23.6817,364.317,0.28209
23.6833,364.301,0.282169
23.685,364.284,0.282246
23.6867,364.268,0.282332
23.6883,364.251,0.282431
23.69,364.235,0.28253
23.6917,364.218,0.282636
23.6933,364.201,0.282743
23.695,364.185,0.282851
23.6967,364.168,0.282954
23.6983,364.152,0.283056
23.7,364.135,0.283149
23.7017,364.119,0.283232
23.7033,364.102,0.283304
23.705,364.086,0.283376
23.7067,364.069,0.283452
23.7083,364.052,0.283531
23.71,364.035,0.283604
23.7117,364.019,0.283686
23.7133,364.002,0.283764
23.715,363.986,0.283838
23.7167,363.969,0.283918
23.7183,363.952,0.283996
23.72,363.936,0.284066
23.7217,363.92,0.284134
23.7233,363.903,0.28421
23.725,363.887,0.284293
23.7267,363.87,0.284378
23.7283,363.854,0.284463
23.73,363.837,0.284549
23.7317,363.82,0.284631
23.7333,363.803,0.284707
23.735,363.787,0.284784
23.7367,363.77,0.284859
23.7383,363.753,0.284929
23.74,363.737,0.285
23.7417,363.721,0.28507
23.7433,363.704,0.285142
23.745,363.687,0.285219
23.7467,363.671,0.285299
23.7483,363.654,0.285382
23.75,363.637,0.285463
23.7517,363.621,0.285532
23.7533,363.605,0.285602
23.755,363.588,0.285665
23.7567,363.571,0.285719
23.7583,363.554,0.285773
23.76,363.537,0.285839
23.7617,363.521,0.28591
23.7633,363.504,0.285981
23.765,363.488,0.286057
23.7667,363.472,0.286132
23.7683,363.455,0.286205
23.77,363.438,0.286279
23.7717,363.422,0.286364
23.7733,363.405,0.286444
23.775,363.389,0.286521
23.7767,363.372,0.286602
23.7783,363.355,0.286686
23.78,363.339,0.286766
23.7817,363.322,0.286848
23.7833,363.306,0.286925
23.785,363.289,0.286996
23.7867,363.273,0.287064
23.7883,363.256,0.287136
23.79,363.24,0.287205
23.7917,363.223,0.287276
23.7933,363.207,0.287341
23.795,363.19,0.287406
23.7967,363.173,0.287469
23.7983,363.156,0.287544
23.8,363.14,0.287618
23.8017,363.123,0.287695
23.8033,363.107,0.287774
23.805,363.09,0.287845
23.8067,363.074,0.287916
23.8083,363.057,0.287989
