Ramp 10.00 °C/min to 250.00 °C,,
Time,Temperature,Heat Flow (Normalized)
min,°C,W/g
22.51,374.682,-0.511914
22.5117,374.682,-0.511911
22.5133,374.682,-0.51191
22.515,374.682,-0.511911
22.5167,374.682,-0.511909
22.5183,374.682,-0.511901
22.52,374.682,-0.511887
22.5217,374.682,-0.51187
22.5233,374.682,-0.511858
22.525,374.682,-0.511846
22.5267,374.682,-0.511839
22.5283,374.682,-0.511839
22.53,374.681,-0.511845
22.5317,374.681,-0.511858
22.5333,374.68,-0.51187
22.535,374.679,-0.511885
22.5367,374.679,-0.511893
22.5383,374.678,-0.511902
22.54,374.677,-0.511913
22.5417,374.676,-0.511907
22.5433,374.675,-0.511891
22.545,374.674,-0.511856
22.5467,374.673,-0.511742
22.5483,374.671,-0.511507
22.55,374.67,-0.51113
22.5517,374.668,-0.510563
22.5533,374.666,-0.50978
22.555,374.664,-0.508452
22.5567,374.663,-0.506419
22.5583,374.661,-0.504146
22.56,374.659,-0.501373
22.5617,374.657,-0.497529
22.5633,374.654,-0.493038
22.565,374.651,-0.48774
22.5667,374.649,-0.481743
22.5683,374.646,-0.475853
22.57,374.643,-0.470284
22.5717,374.639,-0.465012
22.5733,374.636,-0.460124
22.575,374.632,-0.453737
22.5767,374.628,-0.447856
22.5783,374.625,-0.442786
22.58,374.62,-0.439059
22.5817,374.616,-0.434008
22.5833,374.612,-0.427204
22.585,374.607,-0.421328
22.5867,374.602,-0.415334
22.5883,374.597,-0.409394
22.59,374.592,-0.402725
22.5917,374.586,-0.396016
22.5933,374.581,-0.388691
22.595,374.574,-0.382115
22.5967,374.568,-0.376415
22.5983,374.562,-0.371235
22.6,374.555,-0.364957
22.6017,374.549,-0.357726
22.6033,374.542,-0.350116
22.605,374.534,-0.343525
22.6067,374.528,-0.333587
22.6083,374.52,-0.326694
22.61,374.512,-0.318569
22.6117,374.504,-0.309729
22.6133,374.496,-0.301223
22.615,374.488,-0.293609
22.6167,374.48,-0.285559
22.6183,374.471,-0.276851
22.62,374.462,-0.267524
22.6217,374.453,-0.259987
22.6233,374.444,-0.251277
22.625,374.435,-0.243301
22.6267,374.425,-0.234324
22.6283,374.416,-0.224377
22.63,374.406,-0.214971
22.6317,374.396,-0.205262
22.6333,374.386,-0.196741
22.635,374.376,-0.187565
22.6367,374.365,-0.178529
22.6383,374.355,-0.169925
22.64,374.344,-0.162365
22.6417,374.334,-0.154038
22.6433,374.323,-0.145275
22.645,374.312,-0.136453
22.6467,374.3,-0.127182
22.6483,374.289,-0.116824
22.65,374.278,-0.107562
22.6517,374.267,-0.0998999
22.6533,374.256,-0.0907364
22.655,374.244,-0.0834941
22.6567,374.232,-0.0755802
22.6583,374.221,-0.0682427
22.66,374.208,-0.0597939
22.6617,374.196,-0.0531573
22.6633,374.184,-0.0461498
22.665,374.172,-0.0379618
22.6667,374.159,-0.028302
22.6683,374.147,-0.018592
22.67,374.135,-0.0111992
22.6717,374.122,-0.00436833
22.6733,374.109,0.00335129
22.675,374.097,0.0107349
22.6767,374.084,0.0169396
22.6783,374.071,0.0239712
22.68,374.058,0.0306021
22.6817,374.045,0.0365777
22.6833,374.032,0.0429531
22.685,374.019,0.0499916
22.6867,374.005,0.0581679
22.6883,373.992,0.0651399
22.69,373.978,0.071378
22.6917,373.965,0.0775227
22.6933,373.951,0.0839105
22.695,373.938,0.0902217
22.6967,373.924,0.0962035
22.6983,373.91,0.102317
22.7,373.896,0.110036
22.7017,373.883,0.115044
22.7033,373.868,0.119166
22.705,373.854,0.124867
22.7067,373.841,0.131366
22.7083,373.826,0.137619
22.71,373.812,0.143173
22.7117,373.798,0.147188
22.7133,373.784,0.152417
22.715,373.77,0.157073
22.7167,373.755,0.162108
22.7183,373.741,0.167743
22.72,373.726,0.17364
22.7217,373.712,0.178213
22.7233,373.698,0.182938
22.725,373.683,0.188225
22.7267,373.668,0.192521
22.7283,373.654,0.197336
22.73,373.639,0.200249
22.7317,373.625,0.203908
22.7333,373.61,0.208967
22.735,373.595,0.214223
22.7367,373.58,0.218118
22.7383,373.565,0.222393
22.74,373.55,0.227032
22.7417,373.535,0.232072
22.7433,373.52,0.235119
22.745,373.504,0.239487
22.7467,373.49,0.242424
22.7483,373.475,0.245303
22.75,373.46,0.248522
22.7517,373.444,0.253738
22.7533,373.429,0.256155
22.755,373.415,0.259345
22.7567,373.399,0.262763
22.7583,373.384,0.266266
22.76,373.369,0.270842
22.7617,373.353,0.275679
22.7633,373.338,0.278677
22.765,373.323,0.281677
22.7667,373.308,0.284415
22.7683,373.292,0.286292
22.77,373.276,0.289247
22.7717,373.261,0.291822
22.7733,373.246,0.295319
22.775,373.23,0.297791
22.7767,373.215,0.300609
22.7783,373.199,0.303168
22.78,373.184,0.30662
22.7817,373.168,0.309835
22.7833,373.152,0.311624
22.785,373.136,0.313563
22.7867,373.121,0.316595
22.7883,373.105,0.318883
22.79,373.09,0.322421
22.7917,373.074,0.323692
22.7933,373.059,0.32523
22.795,373.043,0.327973
22.7967,373.027,0.331054
22.7983,373.012,0.333907
22.8,372.996,0.33718
22.8017,372.981,0.338373
22.8033,372.965,0.340686
22.805,372.949,0.342143
22.8067,372.934,0.344843
22.8083,372.918,0.347704
22.81,372.902,0.349643
22.8117,372.886,0.351515
22.8133,372.87,0.353108
22.815,372.854,0.354666
22.8167,372.839,0.356473
22.8183,372.823,0.358341
22.82,372.807,0.360198
22.8217,372.792,0.363232
22.8233,372.775,0.364419
22.825,372.76,0.364782
22.8267,372.745,0.366335
22.8283,372.729,0.368462
22.83,372.712,0.369977
22.8317,372.696,0.370828
22.8333,372.68,0.371516
22.835,372.664,0.372998
22.8367,372.648,0.374717
22.8383,372.632,0.376519
22.84,372.616,0.378563
22.8417,372.6,0.380455
22.8433,372.584,0.382925
22.845,372.568,0.384638
22.8467,372.551,0.386317
22.8483,372.536,0.387972
22.85,372.52,0.389413
22.8517,372.503,0.390463
22.8533,372.487,0.392476
22.855,372.471,0.393676
22.8567,372.455,0.394036
22.8583,372.439,0.394332
22.86,372.423,0.394669
22.8617,372.407,0.395326
22.8633,372.391,0.39659
22.865,372.375,0.398092
22.8667,372.359,0.399776
22.8683,372.343,0.401439
22.87,372.327,0.402808
22.8717,372.311,0.403804
22.8733,372.295,0.404185
22.875,372.279,0.404454
22.8767,372.262,0.404925
22.8783,372.246,0.405819
22.88,372.231,0.407308
22.8817,372.214,0.40853
22.8833,372.198,0.409736
22.885,372.182,0.411138
22.8867,372.166,0.412636
22.8883,372.15,0.413835
22.89,372.133,0.415312
22.8917,372.117,0.415981
22.8933,372.101,0.416534
22.895,372.085,0.417203
22.8967,372.069,0.417818
22.8983,372.053,0.418542
22.9,372.036,0.419489
22.9017,372.02,0.42066
22.9033,372.004,0.421618
22.905,371.988,0.422452
22.9067,371.972,0.423069
22.9083,371.956,0.423608
22.91,371.939,0.424164
22.9117,371.922,0.424691
22.9133,371.906,0.425205
22.915,371.89,0.425549
22.9167,371.874,0.425903
22.9183,371.857,0.426209
22.92,371.842,0.426596
22.9217,371.826,0.427183
22.9233,371.809,0.428081
22.925,371.794,0.42896
22.9267,371.777,0.429895
22.9283,371.761,0.430921
22.93,371.744,0.431886
22.9317,371.728,0.432765
22.9333,371.712,0.433396
22.935,371.696,0.433956
22.9367,371.679,0.434584
22.9383,371.663,0.435055
22.94,371.647,0.435592
22.9417,371.63,0.436156
22.9433,371.614,0.436757
22.945,371.597,0.437511
22.9467,371.582,0.438152
22.9483,371.565,0.438795
22.95,371.549,0.439552
22.9517,371.533,0.440166
22.9533,371.517,0.440801
22.955,371.501,0.441402
22.9567,371.484,0.442024
22.9583,371.468,0.442492
22.96,371.451,0.4429
22.9617,371.435,0.443332
22.9633,371.419,0.443598
22.965,371.403,0.443789
22.9667,371.386,0.444056
22.9683,371.37,0.444276
22.97,371.354,0.444549
22.9717,371.337,0.444961
22.9733,371.321,0.445501
22.975,371.305,0.446131
22.9767,371.289,0.446799
22.9783,371.272,0.447445
22.98,371.256,0.44777
22.9817,371.24,0.44813
22.9833,371.223,0.448416
22.985,371.207,0.448694
22.9867,371.191,0.448925
22.9883,371.175,0.449171
22.99,371.159,0.449484
22.9917,371.142,0.44991
22.9933,371.126,0.450334
22.995,371.11,0.450957
22.9967,371.093,0.451417
22.9983,371.077,0.451736
23,371.061,0.451983
23.0017,371.044,0.452215
23.0033,371.028,0.452526
23.005,371.012,0.452928
23.0067,370.995,0.453383
23.0083,370.979,0.453965
23.01,370.963,0.454416
23.0117,370.946,0.454911
23.0133,370.93,0.455535
23.015,370.914,0.456189
23.0167,370.898,0.456761
23.0183,370.881,0.457199
23.02,370.865,0.457533
23.0217,370.849,0.457891
23.0233,370.832,0.458261
23.025,370.816,0.458533
23.0267,370.8,0.458784
23.0283,370.783,0.458963
23.03,370.767,0.459204
23.0317,370.75,0.459515
23.0333,370.734,0.459835
23.035,370.718,0.460193
23.0367,370.701,0.460456
23.0383,370.685,0.460778
23.04,370.669,0.46129
23.0417,370.652,0.461733
23.0433,370.636,0.46211
23.045,370.62,0.462352
23.0467,370.603,0.462655
23.0483,370.588,0.463081
23.05,370.571,0.46358
23.0517,370.554,0.464188
23.0533,370.538,0.464708
23.055,370.521,0.465016
23.0567,370.505,0.465236
23.0583,370.489,0.46546
23.06,370.473,0.465692
23.0617,370.456,0.465859
23.0633,370.44,0.465962
23.065,370.423,0.466095
23.0667,370.407,0.466227
23.0683,370.391,0.466413
23.07,370.374,0.466692
23.0717,370.358,0.467153
23.0733,370.341,0.467528
23.075,370.325,0.467847
23.0767,370.308,0.468178
23.0783,370.292,0.468522
23.08,370.276,0.468947
23.0817,370.26,0.469322
23.0833,370.243,0.469605
23.085,370.227,0.469765
23.0867,370.21,0.469923
23.0883,370.194,0.470124
23.09,370.178,0.470297
23.0917,370.161,0.470422
23.0933,370.144,0.470591
23.095,370.128,0.470962
23.0967,370.112,0.4713
23.0983,370.096,0.471679
23.1,370.079,0.472077
23.1017,370.063,0.472481
23.1033,370.046,0.472814
23.105,370.03,0.473086
23.1067,370.014,0.473329
23.1083,369.998,0.473471
23.11,369.981,0.473547
23.1117,369.964,0.473649
23.1133,369.948,0.473802
23.115,369.932,0.473969
23.1167,369.915,0.474122
23.1183,369.899,0.474391
23.12,369.882,0.474664
23.1217,369.866,0.474938
23.1233,369.85,0.475252
23.125,369.834,0.475538
23.1267,369.817,0.475799
23.1283,369.801,0.476096
23.13,369.784,0.476392
23.1317,369.767,0.476658
23.1333,369.751,0.476981
23.135,369.735,0.477368
23.1367,369.719,0.477648
23.1383,369.702,0.477924
23.14,369.686,0.478205
23.1417,369.669,0.478364
23.1433,369.653,0.478451
23.145,369.637,0.478543
23.1467,369.62,0.478654
23.1483,369.604,0.478748
23.15,369.587,0.478872
23.1517,369.571,0.479064
23.1533,369.554,0.479305
23.155,369.538,0.47953
23.1567,369.521,0.47971
23.1583,369.505,0.479913
23.16,369.488,0.480136
23.1617,369.472,0.480296
23.1633,369.456,0.480465
23.165,369.439,0.480765
23.1667,369.423,0.481098
23.1683,369.407,0.481457
23.17,369.39,0.481832
23.1717,369.374,0.482175
23.1733,369.357,0.482532
23.175,369.341,0.482812
23.1767,369.325,0.483004
23.1783,369.308,0.4832
23.18,369.291,0.483305
23.1817,369.275,0.483409
23.1833,369.258,0.48351
23.185,369.242,0.483609
23.1867,369.226,0.483707
23.1883,369.21,0.483806
23.19,369.193,0.483907
23.1917,369.176,0.484012
23.1933,369.16,0.484162
23.195,369.144,0.484404
23.1967,369.128,0.484616
23.1983,369.111,0.484758
23.2,369.095,0.484873
23.2017,369.078,0.485013
23.2033,369.061,0.485227
23.205,369.045,0.485478
23.2067,369.029,0.485768
23.2083,369.012,0.485992
23.21,368.996,0.486215
23.2117,368.979,0.486558
23.2133,368.963,0.486919
23.215,368.947,0.487152
23.2167,368.93,0.487312
23.2183,368.914,0.48743
23.22,368.898,0.487549
23.2217,368.883,0.487681
23.2233,368.865,0.487801
23.225,368.848,0.487963
23.2267,368.831,0.488121
23.2283,368.815,0.488252
23.23,368.798,0.488389
23.2317,368.782,0.488514
23.2333,368.765,0.488714
23.235,368.749,0.488982
23.2367,368.732,0.489111
23.2383,368.716,0.489269
23.24,368.699,0.489401
23.2417,368.683,0.489586
23.2433,368.667,0.489714
23.245,368.65,0.489841
23.2467,368.634,0.490032
23.2483,368.616,0.490266
23.25,368.601,0.490426
23.2517,368.585,0.490558
23.2533,368.568,0.490778
23.255,368.552,0.490957
23.2567,368.535,0.491092
23.2583,368.519,0.491222
23.26,368.502,0.491362
23.2617,368.486,0.491498
23.2633,368.469,0.491626
23.265,368.453,0.49176
23.2667,368.436,0.491897
23.2683,368.42,0.492037
23.27,368.404,0.492239
23.2717,368.387,0.492421
23.2733,368.371,0.492626
23.275,368.354,0.492844
23.2767,368.338,0.492992
23.2783,368.321,0.493153
23.28,368.305,0.493399
23.2817,368.288,0.493619
23.2833,368.272,0.493804
23.285,368.255,0.494037
23.2867,368.239,0.494326
23.2883,368.223,0.494553
23.29,368.206,0.494811
23.2917,368.189,0.494957
23.2933,368.173,0.49513
23.295,368.156,0.495282
23.2967,368.14,0.495428
23.2983,368.123,0.495575
23.3,368.106,0.495722
23.3017,368.09,0.495872
23.3033,368.073,0.496016
23.305,368.057,0.496185
23.3067,368.041,0.496327
23.3083,368.025,0.496472
23.31,368.008,0.496619
23.3117,367.991,0.496762
23.3133,367.975,0.496901
23.315,367.958,0.497042
23.3167,367.942,0.497187
23.3183,367.925,0.497338
23.32,367.909,0.497489
23.3217,367.893,0.497662
23.3233,367.876,0.497842
23.325,367.86,0.497996
23.3267,367.843,0.498152
23.3283,367.827,0.498373
23.33,367.81,0.498603
23.3317,367.793,0.49878
23.3333,367.777,0.498975
23.335,367.76,0.499129
23.3367,367.744,0.499283
23.3383,367.728,0.499435
23.34,367.711,0.499585
23.3417,367.694,0.499736
23.3433,367.678,0.499919
23.345,367.661,0.500204
23.3467,367.645,0.500445
23.3483,367.628,0.500686
23.35,367.612,0.500846
23.3517,367.596,0.501007
23.3533,367.579,0.501182
23.355,367.563,0.501342
23.3567,367.546,0.501495
23.3583,367.531,0.501722
23.36,367.514,0.501884
23.3617,367.498,0.502018
23.3633,367.481,0.502152
23.365,367.465,0.5023
23.3667,367.448,0.50245
23.3683,367.431,0.5026
23.37,367.414,0.502745
23.3717,367.398,0.502902
23.3733,367.381,0.50309
23.375,367.365,0.503315
23.3767,367.348,0.503534
23.3783,367.332,0.503688
23.38,367.315,0.503832
23.3817,367.299,0.50398
23.3833,367.283,0.504124
23.385,367.266,0.504273
23.3867,367.25,0.504426
23.3883,367.233,0.504581
23.39,367.217,0.504813
23.3917,367.2,0.505075
23.3933,367.184,0.505402
23.395,367.167,0.505616
23.3967,367.151,0.505837
23.3983,367.134,0.505995
23.4,367.117,0.506156
23.4017,367.101,0.506311
23.4033,367.084,0.50647
23.405,367.067,0.506624
23.4067,367.051,0.506786
23.4083,367.034,0.50695
23.41,367.018,0.507158
23.4117,367.001,0.507323
23.4133,366.985,0.507484
23.415,366.968,0.507665
23.4167,366.952,0.507831
23.4183,366.936,0.507991
23.42,366.919,0.508148
23.4217,366.903,0.508309
23.4233,366.886,0.508468
23.425,366.87,0.508652
23.4267,366.853,0.50881
23.4283,366.837,0.508968
23.43,366.82,0.509124
23.4317,366.803,0.509283
23.4333,366.787,0.509446
23.435,366.77,0.509607
23.4367,366.754,0.509754
23.4383,366.737,0.509899
23.44,366.721,0.510041
23.4417,366.704,0.510184
23.4433,366.688,0.510326
23.445,366.671,0.510456
23.4467,366.655,0.510594
23.4483,366.638,0.510738
23.45,366.621,0.510877
23.4517,366.605,0.511028
23.4533,366.588,0.511175
23.455,366.572,0.511326
23.4567,366.555,0.511484
23.4583,366.539,0.511647
23.46,366.522,0.511825
23.4617,366.506,0.511981
23.4633,366.489,0.512137
23.465,366.473,0.512297
23.4667,366.456,0.512456
23.4683,366.439,0.512619
23.47,366.423,0.512783
23.4717,366.406,0.512945
23.4733,366.39,0.513101
23.475,366.373,0.51326
23.4767,366.356,0.513411
23.4783,366.34,0.513551
23.48,366.324,0.513693
23.4817,366.307,0.513828
23.4833,366.291,0.513963
23.485,366.274,0.514099
23.4867,366.258,0.514237
23.4883,366.241,0.514384
23.49,366.225,0.514544
23.4917,366.208,0.514704
23.4933,366.191,0.514866
23.495,366.175,0.515027
23.4967,366.158,0.515188
23.4983,366.142,0.515347
23.5,366.125,0.515506
23.5017,366.108,0.515657
23.5033,366.092,0.515806
23.505,366.075,0.515947
23.5067,366.059,0.516094
23.5083,366.042,0.516237
23.51,366.026,0.51638
23.5117,366.01,0.516528
23.5133,365.993,0.51668
23.515,365.976,0.516832
23.5167,365.959,0.516989
23.5183,365.943,0.517148
23.52,365.926,0.517298
23.5217,365.91,0.517444
23.5233,365.893,0.517596
23.525,365.877,0.517743
23.5267,365.86,0.517896
23.5283,365.843,0.518051
23.53,365.827,0.518201
23.5317,365.811,0.518353
23.5333,365.794,0.518509
23.535,365.777,0.518658
23.5367,365.761,0.518809
23.5383,365.744,0.518957
23.54,365.728,0.5191
23.5417,365.712,0.519241
23.5433,365.695,0.519384
23.545,365.678,0.519528
23.5467,365.662,0.519672
23.5483,365.645,0.519809
23.55,365.629,0.519948
23.5517,365.611,0.520087
23.5533,365.596,0.520222
23.555,365.58,0.520354
23.5567,365.563,0.520481
23.5583,365.547,0.520614
23.56,365.53,0.520745
23.5617,365.513,0.52087
23.5633,365.497,0.520989
23.565,365.481,0.521109
23.5667,365.464,0.521222
23.5683,365.447,0.521346
23.57,365.43,0.521474
23.5717,365.414,0.521611
23.5733,365.397,0.521753
23.575,365.381,0.521897
23.5767,365.364,0.522032
23.5783,365.348,0.522176
23.58,365.331,0.522316
23.5817,365.315,0.522458
23.5833,365.298,0.522594
23.585,365.282,0.522726
23.5867,365.265,0.522848
23.5883,365.249,0.522962
23.59,365.232,0.523078
23.5917,365.216,0.523198
23.5933,365.199,0.523327
23.595,365.183,0.523459
23.5967,365.166,0.523594
23.5983,365.149,0.523735
23.6,365.133,0.523877
23.6017,365.116,0.524078
23.6033,365.099,0.524287
23.605,365.083,0.524468
23.6067,365.067,0.524612
23.6083,365.05,0.524756
23.61,365.033,0.524908
23.6117,365.017,0.52506
23.6133,365,0.525208
23.615,364.983,0.525348
23.6167,364.967,0.525486
23.6183,364.951,0.525628
23.62,364.934,0.525771
23.6217,364.917,0.525912
23.6233,364.901,0.526057
23.625,364.884,0.526195
23.6267,364.868,0.526328
23.6283,364.851,0.526471
23.63,364.834,0.526617
23.6317,364.818,0.526766
23.6333,364.801,0.526918
23.635,364.785,0.527059
23.6367,364.768,0.527194
23.6383,364.752,0.527324
23.64,364.735,0.52746
23.6417,364.719,0.527597
23.6433,364.702,0.527731
23.645,364.686,0.527858
23.6467,364.669,0.527982
23.6483,364.652,0.52811
23.65,364.635,0.52824
23.6517,364.619,0.528378
23.6533,364.602,0.528507
23.655,364.586,0.528636
23.6567,364.569,0.52876
23.6583,364.553,0.528886
23.66,364.536,0.529016
23.6617,364.519,0.529156
23.6633,364.503,0.529299
23.665,364.486,0.529429
23.6667,364.47,0.529556
23.6683,364.453,0.529686
23.67,364.437,0.529815
23.6717,364.42,0.529941
23.6733,364.404,0.530065
23.675,364.387,0.530179
23.6767,364.37,0.530294
23.6783,364.354,0.530401
23.68,364.337,0.530512
23.6817,364.321,0.530626
23.6833,364.304,0.530738
23.685,364.287,0.530849
23.6867,364.271,0.530962
23.6883,364.255,0.531086
23.69,364.238,0.531208
23.6917,364.222,0.531325
23.6933,364.205,0.53144
23.695,364.189,0.53156
23.6967,364.172,0.531689
23.6983,364.155,0.531815
23.7,364.139,0.531937
23.7017,364.122,0.532054
23.7033,364.105,0.532171
23.705,364.089,0.532289
23.7067,364.072,0.532413
23.7083,364.055,0.532548
23.71,364.039,0.532685
23.7117,364.022,0.532819
23.7133,364.006,0.532942
23.715,363.989,0.533064
23.7167,363.973,0.533192
23.7183,363.956,0.533313
23.72,363.939,0.533428
23.7217,363.923,0.533546
23.7233,363.906,0.533658
23.725,363.89,0.533778
23.7267,363.873,0.533895
23.7283,363.857,0.534004
23.73,363.84,0.534119
23.7317,363.824,0.534228
23.7333,363.807,0.534343
23.735,363.79,0.534459
23.7367,363.773,0.534578
23.7383,363.757,0.534699
23.74,363.741,0.534824
23.7417,363.724,0.534952
23.7433,363.707,0.535081
23.745,363.691,0.535212
23.7467,363.674,0.535334
23.7483,363.658,0.535461
23.75,363.641,0.535582
23.7517,363.624,0.535711
23.7533,363.607,0.53583
23.755,363.591,0.535944
23.7567,363.574,0.536059
23.7583,363.558,0.536179
23.76,363.542,0.536296
23.7617,363.525,0.536401
23.7633,363.508,0.536502
23.765,363.492,0.536597
23.7667,363.475,0.536699
23.7683,363.458,0.536801
23.77,363.442,0.536909
23.7717,363.425,0.537023
23.7733,363.409,0.537143
23.775,363.392,0.537267
23.7767,363.376,0.537389
23.7783,363.359,0.537508
23.78,363.343,0.537621
23.7817,363.326,0.537737
23.7833,363.31,0.537848
23.785,363.293,0.537962
23.7867,363.277,0.538079
23.7883,363.26,0.538187
23.79,363.244,0.538292
23.7917,363.227,0.538409
23.7933,363.21,0.538524
23.795,363.193,0.538644
23.7967,363.177,0.538758
23.7983,363.16,0.538876
23.8,363.144,0.538987
23.8017,363.127,0.53909
23.8033,363.11,0.539197
23.805,363.093,0.539301
23.8067,363.077,0.539404
23.8083,363.061,0.5395
23.81,363.044,0.539595
23.8117,363.028,0.539688
