Ramp 10.00 °C/min to 250.00 °C,,
Time,Temperature,Heat Flow (Normalized)
min,°C,W/g
22.51,374.69,-0.529812
22.5117,374.69,-0.529819
22.5133,374.69,-0.529828
22.515,374.69,-0.529834
22.5167,374.69,-0.52985
22.5183,374.69,-0.529869
22.52,374.69,-0.529884
22.5217,374.69,-0.529888
22.5233,374.69,-0.52988
22.525,374.69,-0.529871
22.5267,374.69,-0.529867
22.5283,374.69,-0.52986
22.53,374.69,-0.529852
22.5317,374.689,-0.529848
22.5333,374.689,-0.529846
22.535,374.688,-0.529848
22.5367,374.688,-0.529851
22.5383,374.687,-0.529842
22.54,374.686,-0.529833
22.5417,374.685,-0.529808
22.5433,374.684,-0.529779
22.545,374.683,-0.529749
22.5467,374.682,-0.529675
22.5483,374.681,-0.529576
22.55,374.679,-0.529396
22.5517,374.678,-0.52911
22.5533,374.677,-0.528554
22.555,374.675,-0.527875
22.5567,374.673,-0.526926
22.5583,374.671,-0.525648
22.56,374.67,-0.523884
22.5617,374.667,-0.521888
22.5633,374.665,-0.520053
22.565,374.663,-0.518258
22.5667,374.66,-0.51652
22.5683,374.657,-0.514773
22.57,374.654,-0.512745
22.5717,374.651,-0.510319
22.5733,374.648,-0.507045
22.575,374.645,-0.5036
22.5767,374.641,-0.500842
22.5783,374.637,-0.497694
22.58,374.633,-0.494021
22.5817,374.629,-0.49017
22.5833,374.625,-0.48522
22.585,374.62,-0.479488
22.5867,374.616,-0.474026
22.5883,374.611,-0.468137
22.59,374.605,-0.4624
22.5917,374.6,-0.456993
22.5933,374.595,-0.453048
22.595,374.589,-0.449508
22.5967,374.584,-0.445644
22.5983,374.577,-0.440531
22.6,374.571,-0.435052
22.6017,374.565,-0.429169
22.6033,374.558,-0.424588
22.605,374.551,-0.4183
22.6067,374.544,-0.410695
22.6083,374.537,-0.403539
22.61,374.529,-0.396269
22.6117,374.522,-0.389442
22.6133,374.514,-0.383323
22.615,374.506,-0.376015
22.6167,374.497,-0.367372
22.6183,374.489,-0.359943
22.62,374.48,-0.353462
22.6217,374.472,-0.346148
22.6233,374.463,-0.339533
22.625,374.454,-0.33164
22.6267,374.445,-0.322811
22.6283,374.435,-0.313963
22.63,374.425,-0.305758
22.6317,374.415,-0.298482
22.6333,374.406,-0.289864
22.635,374.395,-0.280846
22.6367,374.385,-0.272239
22.6383,374.375,-0.26421
22.64,374.364,-0.25533
22.6417,374.354,-0.24757
22.6433,374.343,-0.239411
22.645,374.333,-0.232071
22.6467,374.321,-0.223186
22.6483,374.31,-0.215154
22.65,374.299,-0.207537
22.6517,374.288,-0.200109
22.6533,374.276,-0.192443
22.655,374.264,-0.184288
22.6567,374.253,-0.174988
22.6583,374.241,-0.165464
22.66,374.229,-0.15745
22.6617,374.218,-0.149899
22.6633,374.205,-0.142212
22.665,374.193,-0.134567
22.6667,374.181,-0.126574
22.6683,374.169,-0.119863
22.67,374.156,-0.113364
22.6717,374.143,-0.107095
22.6733,374.131,-0.0998531
22.675,374.118,-0.0916867
22.6767,374.106,-0.0834689
22.6783,374.093,-0.077013
22.68,374.08,-0.070189
22.6817,374.067,-0.0647043
22.6833,374.054,-0.0585702
22.685,374.041,-0.0510161
22.6867,374.027,-0.0439509
22.6883,374.014,-0.0377645
22.69,374.001,-0.0312466
22.6917,373.987,-0.0247634
22.6933,373.973,-0.0178906
22.695,373.959,-0.0117972
22.6967,373.945,-0.00469305
22.6983,373.932,-0.000342766
22.7,373.918,0.00475386
22.7017,373.904,0.0101103
22.7033,373.89,0.0152427
22.705,373.876,0.0205717
22.7067,373.862,0.0258045
22.7083,373.848,0.0306697
22.71,373.835,0.0367684
22.7117,373.82,0.0425101
22.7133,373.806,0.0493034
22.715,373.792,0.0536792
22.7167,373.777,0.0579598
22.7183,373.763,0.0631979
22.72,373.748,0.0679922
22.7217,373.734,0.0732275
22.7233,373.719,0.0782672
22.725,373.705,0.0826708
22.7267,373.69,0.087463
22.7283,373.675,0.0929128
22.73,373.661,0.0975674
22.7317,373.646,0.101247
22.7333,373.631,0.10453
22.735,373.616,0.108612
22.7367,373.602,0.114016
22.7383,373.587,0.117335
22.74,373.572,0.120395
22.7417,373.557,0.123575
22.7433,373.542,0.127247
22.745,373.527,0.129701
22.7467,373.512,0.133658
22.7483,373.497,0.138157
22.75,373.482,0.140219
22.7517,373.467,0.142805
22.7533,373.451,0.147817
22.755,373.436,0.15195
22.7567,373.421,0.154803
22.7583,373.405,0.158412
22.76,373.39,0.162851
22.7617,373.375,0.168078
22.7633,373.36,0.171349
22.765,373.344,0.174004
22.7667,373.329,0.176181
22.7683,373.313,0.178526
22.77,373.298,0.180111
22.7717,373.282,0.181582
22.7733,373.267,0.183997
22.775,373.252,0.187201
22.7767,373.236,0.190361
22.7783,373.221,0.193304
22.78,373.205,0.197113
22.7817,373.19,0.201547
22.7833,373.174,0.204189
22.785,373.158,0.20686
22.7867,373.143,0.209079
22.7883,373.127,0.210248
22.79,373.111,0.211504
22.7917,373.096,0.213558
22.7933,373.08,0.21618
22.795,373.065,0.218463
22.7967,373.049,0.220283
22.7983,373.033,0.222309
22.8,373.017,0.224865
22.8017,373.002,0.228515
22.8033,372.986,0.230772
22.805,372.97,0.233494
22.8067,372.955,0.236116
22.8083,372.939,0.23832
22.81,372.923,0.24107
22.8117,372.907,0.242418
22.8133,372.891,0.244402
22.815,372.875,0.245179
22.8167,372.859,0.247364
22.8183,372.843,0.249868
22.82,372.827,0.251421
22.8217,372.812,0.252442
22.8233,372.796,0.253692
22.825,372.78,0.255017
22.8267,372.764,0.255901
22.8283,372.748,0.256816
22.83,372.732,0.257236
22.8317,372.716,0.258337
22.8333,372.7,0.259571
22.835,372.684,0.261711
22.8367,372.668,0.264605
22.8383,372.652,0.267071
22.84,372.636,0.268391
22.8417,372.62,0.270215
22.8433,372.604,0.271218
22.845,372.589,0.272523
22.8467,372.572,0.273989
22.8483,372.556,0.275173
22.85,372.54,0.276267
22.8517,372.524,0.277618
22.8533,372.508,0.279094
22.855,372.491,0.280102
22.8567,372.475,0.281317
22.8583,372.459,0.282303
22.86,372.443,0.282819
22.8617,372.427,0.284265
22.8633,372.411,0.285627
22.865,372.395,0.286371
22.8667,372.378,0.286611
22.8683,372.362,0.287262
22.87,372.346,0.287918
22.8717,372.33,0.289126
22.8733,372.314,0.290297
22.875,372.298,0.291342
22.8767,372.282,0.292074
22.8783,372.266,0.292944
22.88,372.25,0.294064
22.8817,372.234,0.295269
22.8833,372.218,0.296417
22.885,372.202,0.297176
22.8867,372.185,0.297882
22.8883,372.169,0.298373
22.89,372.153,0.298873
22.8917,372.137,0.299881
22.8933,372.121,0.30056
22.895,372.104,0.301128
22.8967,372.088,0.301829
22.8983,372.072,0.302674
22.9,372.055,0.303745
22.9017,372.039,0.304653
22.9033,372.023,0.305741
22.905,372.007,0.306793
22.9067,371.991,0.307679
22.9083,371.974,0.308456
22.91,371.958,0.309162
22.9117,371.942,0.309896
22.9133,371.926,0.310396
22.915,371.91,0.310886
22.9167,371.894,0.311678
22.9183,371.878,0.312369
22.92,371.861,0.312915
22.9217,371.845,0.313646
22.9233,371.828,0.314276
22.925,371.812,0.314872
22.9267,371.796,0.315516
22.9283,371.78,0.316239
22.93,371.764,0.316804
22.9317,371.748,0.317377
22.9333,371.732,0.318045
22.935,371.715,0.318898
22.9367,371.699,0.319442
22.9383,371.683,0.319979
22.94,371.666,0.320555
22.9417,371.65,0.321045
22.9433,371.634,0.321723
22.945,371.617,0.322293
22.9467,371.601,0.322828
22.9483,371.585,0.323242
22.95,371.569,0.323652
22.9517,371.552,0.324277
22.9533,371.536,0.324944
22.955,371.52,0.325552
22.9567,371.503,0.326139
22.9583,371.487,0.326577
22.96,371.471,0.327106
22.9617,371.455,0.327572
22.9633,371.439,0.327999
22.965,371.422,0.328426
22.9667,371.406,0.328846
22.9683,371.39,0.329198
22.97,371.373,0.329532
22.9717,371.357,0.329977
22.9733,371.34,0.330474
22.975,371.324,0.330987
22.9767,371.307,0.331492
22.9783,371.291,0.331873
22.98,371.275,0.332119
22.9817,371.259,0.332386
22.9833,371.242,0.332647
22.985,371.226,0.332895
22.9867,371.209,0.333068
22.9883,371.193,0.333255
22.99,371.177,0.333395
22.9917,371.161,0.333566
22.9933,371.145,0.333724
22.995,371.128,0.333868
22.9967,371.112,0.334016
22.9983,371.095,0.334212
23,371.079,0.334345
23.0017,371.063,0.334619
23.0033,371.047,0.334995
23.005,371.03,0.335346
23.0067,371.014,0.335711
23.0083,370.998,0.335939
23.01,370.981,0.336285
23.0117,370.965,0.336593
23.0133,370.948,0.336881
23.015,370.932,0.337157
23.0167,370.916,0.337505
23.0183,370.9,0.337875
23.02,370.883,0.338175
23.0217,370.866,0.338592
23.0233,370.85,0.339199
23.025,370.834,0.339601
23.0267,370.817,0.339951
23.0283,370.801,0.340237
23.03,370.785,0.340582
23.0317,370.769,0.341
23.0333,370.752,0.341352
23.035,370.736,0.341662
23.0367,370.72,0.342029
23.0383,370.703,0.342386
23.04,370.687,0.342729
23.0417,370.67,0.343065
23.0433,370.654,0.343307
23.045,370.638,0.343505
23.0467,370.621,0.343668
23.0483,370.605,0.343868
23.05,370.588,0.344066
23.0517,370.572,0.344315
23.0533,370.555,0.344625
23.055,370.539,0.34485
23.0567,370.522,0.345126
23.0583,370.506,0.345332
23.06,370.49,0.345529
23.0617,370.473,0.345733
23.0633,370.457,0.345951
23.065,370.441,0.346235
23.0667,370.424,0.346568
23.0683,370.408,0.346935
23.07,370.391,0.347319
23.0717,370.375,0.347713
23.0733,370.359,0.348134
23.075,370.342,0.348437
23.0767,370.326,0.348656
23.0783,370.31,0.348856
23.08,370.294,0.349061
23.0817,370.277,0.349265
23.0833,370.261,0.349433
23.085,370.244,0.349688
23.0867,370.228,0.349896
23.0883,370.212,0.350025
23.09,370.195,0.350172
23.0917,370.179,0.350299
23.0933,370.162,0.350394
23.095,370.146,0.350476
23.0967,370.129,0.350581
23.0983,370.113,0.350664
23.1,370.096,0.350761
23.1017,370.08,0.350924
23.1033,370.064,0.351149
23.105,370.047,0.351327
23.1067,370.03,0.351518
23.1083,370.014,0.351707
23.11,369.998,0.351868
23.1117,369.982,0.352015
23.1133,369.965,0.352153
23.115,369.948,0.352265
23.1167,369.932,0.352413
23.1183,369.915,0.352572
23.12,369.899,0.352812
23.1217,369.883,0.353042
23.1233,369.866,0.353324
23.125,369.85,0.353513
23.1267,369.834,0.353683
23.1283,369.817,0.353814
23.13,369.801,0.354013
23.1317,369.785,0.354152
23.1333,369.768,0.354272
23.135,369.752,0.354382
23.1367,369.735,0.35455
23.1383,369.719,0.354775
23.14,369.702,0.354958
23.1417,369.686,0.355084
23.1433,369.67,0.355188
23.145,369.653,0.355302
23.1467,369.637,0.355418
23.1483,369.621,0.355563
23.15,369.604,0.355733
23.1517,369.587,0.355939
23.1533,369.571,0.356103
23.155,369.555,0.356326
23.1567,369.538,0.356773
23.1583,369.522,0.357271
23.16,369.505,0.357578
23.1617,369.489,0.357863
23.1633,369.472,0.358192
23.165,369.456,0.358392
23.1667,369.44,0.358563
23.1683,369.423,0.358677
23.17,369.406,0.358786
23.1717,369.39,0.359092
23.1733,369.374,0.359193
23.175,369.357,0.359302
23.1767,369.341,0.359423
23.1783,369.325,0.359582
23.18,369.308,0.359857
23.1817,369.292,0.360108
23.1833,369.275,0.360351
23.185,369.259,0.360639
23.1867,369.242,0.360822
23.1883,369.226,0.361022
23.19,369.21,0.361305
23.1917,369.193,0.361567
23.1933,369.177,0.361772
23.195,369.16,0.362006
23.1967,369.143,0.362167
23.1983,369.127,0.362289
23.2,369.111,0.362403
23.2017,369.094,0.362522
23.2033,369.078,0.362646
23.205,369.061,0.362818
23.2067,369.045,0.362947
23.2083,369.028,0.363071
23.21,369.012,0.36319
23.2117,368.996,0.363319
23.2133,368.979,0.363448
23.215,368.962,0.363572
23.2167,368.946,0.363695
23.2183,368.93,0.363819
23.22,368.913,0.363947
23.2217,368.897,0.364069
23.2233,368.88,0.364196
23.225,368.864,0.364328
23.2267,368.847,0.364471
23.2283,368.831,0.364602
23.23,368.814,0.364746
23.2317,368.798,0.364879
23.2333,368.782,0.365009
23.235,368.765,0.365139
23.2367,368.749,0.365272
23.2383,368.732,0.365402
23.24,368.716,0.365533
23.2417,368.699,0.365729
23.2433,368.683,0.365964
23.245,368.667,0.366205
23.2467,368.65,0.366537
23.2483,368.633,0.366799
23.25,368.617,0.367088
23.2517,368.601,0.367386
23.2533,368.584,0.367653
23.255,368.568,0.367849
23.2567,368.551,0.367982
23.2583,368.534,0.36811
23.26,368.518,0.368235
23.2617,368.501,0.368427
23.2633,368.485,0.368553
23.265,368.468,0.368676
23.2667,368.452,0.368793
23.2683,368.435,0.368917
23.27,368.419,0.369048
23.2717,368.403,0.369186
23.2733,368.386,0.369339
23.275,368.369,0.369497
23.2767,368.353,0.369641
23.2783,368.336,0.369783
23.28,368.32,0.369925
23.2817,368.304,0.37017
23.2833,368.287,0.370404
23.285,368.271,0.370655
23.2867,368.255,0.370859
23.2883,368.238,0.371072
23.29,368.221,0.371303
23.2917,368.205,0.371603
23.2933,368.188,0.372003
23.295,368.171,0.372349
23.2967,368.155,0.372689
23.2983,368.138,0.372919
23.3,368.122,0.373061
23.3017,368.106,0.373203
23.3033,368.089,0.373342
23.305,368.072,0.373525
23.3067,368.056,0.37366
23.3083,368.04,0.373781
23.31,368.023,0.3739
23.3117,368.006,0.374018
23.3133,367.99,0.374139
23.315,367.973,0.374266
23.3167,367.957,0.374392
23.3183,367.94,0.374516
23.32,367.924,0.374646
23.3217,367.908,0.374781
23.3233,367.891,0.374915
23.325,367.875,0.375049
23.3267,367.858,0.375186
23.3283,367.842,0.375327
23.33,367.825,0.375472
23.3317,367.809,0.375679
23.3333,367.792,0.375861
23.335,367.776,0.376023
23.3367,367.759,0.376167
23.3383,367.742,0.376313
23.34,367.726,0.376453
23.3417,367.709,0.376597
23.3433,367.693,0.376736
23.345,367.676,0.376879
23.3467,367.659,0.377018
23.3483,367.643,0.377149
23.35,367.627,0.377276
23.3517,367.611,0.377403
23.3533,367.595,0.377532
23.355,367.578,0.377657
23.3567,367.562,0.377782
23.3583,367.546,0.377915
23.36,367.529,0.378049
23.3617,367.513,0.378181
23.3633,367.496,0.378316
23.365,367.48,0.378482
23.3667,367.463,0.37863
23.3683,367.446,0.378777
23.37,367.43,0.37892
23.3717,367.413,0.379062
23.3733,367.396,0.379199
23.375,367.38,0.379336
23.3767,367.364,0.379469
23.3783,367.347,0.379608
23.38,367.331,0.379752
23.3817,367.314,0.379893
23.3833,367.298,0.380039
23.385,367.281,0.380186
23.3867,367.264,0.380337
23.3883,367.248,0.380476
23.39,367.232,0.380615
23.3917,367.215,0.380748
23.3933,367.198,0.380874
23.395,367.182,0.381
23.3967,367.165,0.381123
23.3983,367.149,0.38125
23.4,367.132,0.381381
23.4017,367.115,0.381522
23.4033,367.099,0.381668
23.405,367.083,0.381908
23.4067,367.066,0.382091
23.4083,367.05,0.382241
23.41,367.033,0.382379
23.4117,367.017,0.382508
23.4133,367,0.382639
23.415,366.983,0.382773
23.4167,366.967,0.382918
23.4183,366.95,0.383066
23.42,366.933,0.383218
23.4217,366.917,0.383413
23.4233,366.9,0.383718
23.425,366.884,0.383923
23.4267,366.867,0.38414
23.4283,366.851,0.384292
23.43,366.835,0.384428
23.4317,366.818,0.384565
23.4333,366.802,0.3847
23.435,366.786,0.384835
23.4367,366.769,0.384967
23.4383,366.752,0.385095
23.44,366.735,0.385224
23.4417,366.719,0.385359
23.4433,366.702,0.385507
23.445,366.685,0.385652
23.4467,366.669,0.385799
23.4483,366.653,0.38593
23.45,366.636,0.386057
23.4517,366.62,0.386186
23.4533,366.603,0.386317
23.455,366.586,0.386452
23.4567,366.57,0.386583
23.4583,366.553,0.386714
23.46,366.537,0.386861
23.4617,366.52,0.387003
23.4633,366.504,0.387153
23.465,366.487,0.387383
23.4667,366.471,0.387527
23.4683,366.454,0.38766
23.47,366.437,0.387798
23.4717,366.42,0.387938
23.4733,366.404,0.38808
23.475,366.388,0.388211
23.4767,366.371,0.38834
23.4783,366.354,0.388472
23.48,366.338,0.388606
23.4817,366.322,0.38874
23.4833,366.305,0.388867
23.485,366.288,0.388991
23.4867,366.272,0.389103
23.4883,366.255,0.389216
23.49,366.239,0.389324
23.4917,366.223,0.389441
23.4933,366.206,0.389561
23.495,366.189,0.389686
23.4967,366.172,0.389808
23.4983,366.156,0.389931
23.5,366.14,0.390056
23.5017,366.123,0.39019
23.5033,366.106,0.390325
23.505,366.09,0.390462
23.5067,366.074,0.390599
23.5083,366.057,0.390741
23.51,366.04,0.390873
23.5117,366.024,0.391009
23.5133,366.007,0.391152
23.515,365.991,0.391286
23.5167,365.974,0.391422
23.5183,365.958,0.391562
23.52,365.941,0.3917
23.5217,365.924,0.391836
23.5233,365.908,0.39198
23.525,365.892,0.392124
23.5267,365.875,0.392263
23.5283,365.858,0.392391
23.53,365.841,0.392523
23.5317,365.825,0.392657
23.5333,365.809,0.392779
23.535,365.792,0.392897
23.5367,365.775,0.393007
23.5383,365.759,0.393112
23.54,365.742,0.393214
23.5417,365.726,0.393322
23.5433,365.709,0.393441
23.545,365.693,0.393551
23.5467,365.676,0.393663
23.5483,365.659,0.393783
23.55,365.643,0.393902
23.5517,365.626,0.394023
23.5533,365.61,0.394153
23.555,365.593,0.394283
23.5567,365.577,0.394408
23.5583,365.56,0.394528
23.56,365.543,0.394647
23.5617,365.527,0.394778
23.5633,365.511,0.394912
23.565,365.494,0.395047
23.5667,365.478,0.395177
23.5683,365.461,0.395304
23.57,365.444,0.395431
23.5717,365.428,0.395563
23.5733,365.412,0.395695
23.575,365.395,0.395823
23.5767,365.378,0.395947
23.5783,365.362,0.396071
23.58,365.345,0.396198
23.5817,365.329,0.39632
23.5833,365.312,0.39645
23.585,365.295,0.396569
23.5867,365.279,0.396688
23.5883,365.262,0.396801
23.59,365.246,0.396912
23.5917,365.229,0.397019
23.5933,365.213,0.397126
23.595,365.196,0.397231
23.5967,365.18,0.397344
23.5983,365.163,0.397469
23.6,365.147,0.397596
23.6017,365.13,0.397721
23.6033,365.113,0.397846
23.605,365.096,0.397966
23.6067,365.08,0.398083
23.6083,365.063,0.398196
23.61,365.046,0.398303
23.6117,365.03,0.398408
23.6133,365.014,0.398513
23.615,364.997,0.398624
23.6167,364.981,0.398735
23.6183,364.964,0.398849
23.62,364.948,0.398961
23.6217,364.931,0.399076
23.6233,364.915,0.399186
23.625,364.898,0.399299
23.6267,364.881,0.399411
23.6283,364.865,0.39952
23.63,364.848,0.39963
23.6317,364.832,0.399731
23.6333,364.815,0.399834
23.635,364.798,0.399934
23.6367,364.781,0.400036
23.6383,364.765,0.40014
23.64,364.748,0.400245
23.6417,364.732,0.400364
23.6433,364.715,0.400487
23.645,364.699,0.400603
23.6467,364.682,0.400715
23.6483,364.666,0.400829
23.65,364.649,0.400944
23.6517,364.632,0.401067
23.6533,364.616,0.401185
23.655,364.599,0.401296
23.6567,364.583,0.4014
23.6583,364.566,0.401496
23.66,364.55,0.401595
23.6617,364.533,0.401693
23.6633,364.517,0.401791
23.665,364.501,0.401888
23.6667,364.484,0.401994
23.6683,364.467,0.4021
23.67,364.451,0.402207
23.6717,364.434,0.402309
23.6733,364.417,0.402401
23.675,364.401,0.402504
23.6767,364.385,0.402607
23.6783,364.368,0.402721
23.68,364.351,0.402828
23.6817,364.335,0.402936
23.6833,364.318,0.403043
23.685,364.302,0.40316
23.6867,364.285,0.403272
23.6883,364.268,0.403379
23.69,364.252,0.403478
23.6917,364.235,0.403575
23.6933,364.218,0.403672
23.695,364.202,0.403764
23.6967,364.186,0.403862
23.6983,364.169,0.403969
23.7,364.152,0.404084
23.7017,364.136,0.4042
23.7033,364.119,0.404324
23.705,364.102,0.404438
23.7067,364.085,0.404545
23.7083,364.069,0.404653
23.71,364.052,0.404756
23.7117,364.036,0.404849
23.7133,364.019,0.404941
23.715,364.003,0.405035
23.7167,363.986,0.405131
23.7183,363.97,0.405229
23.72,363.953,0.405336
23.7217,363.937,0.405442
23.7233,363.92,0.405549
23.725,363.903,0.405663
23.7267,363.887,0.40577
23.7283,363.87,0.405872
23.73,363.854,0.405976
23.7317,363.837,0.406081
23.7333,363.821,0.406193
23.735,363.804,0.4063
23.7367,363.787,0.406402
23.7383,363.771,0.406503
23.74,363.754,0.4066
23.7417,363.737,0.406695
23.7433,363.721,0.406786
23.745,363.704,0.406866
23.7467,363.688,0.406936
23.7483,363.672,0.407011
23.75,363.655,0.407106
23.7517,363.638,0.407203
23.7533,363.622,0.407309
23.755,363.605,0.407423
23.7567,363.589,0.407539
23.7583,363.572,0.407644
23.76,363.556,0.407751
23.7617,363.539,0.407853
23.7633,363.522,0.407953
23.765,363.506,0.408053
23.7667,363.489,0.408156
23.7683,363.472,0.408266
23.77,363.456,0.408379
23.7717,363.439,0.408495
23.7733,363.423,0.408609
23.775,363.406,0.408725
23.7767,363.39,0.408832
23.7783,363.373,0.408936
23.78,363.356,0.409038
23.7817,363.34,0.409147
23.7833,363.323,0.409247
23.785,363.307,0.409339
23.7867,363.29,0.409425
23.7883,363.274,0.409513
23.79,363.257,0.4096
23.7917,363.241,0.409686
23.7933,363.224,0.409769
23.795,363.207,0.409853
23.7967,363.191,0.409941
23.7983,363.174,0.410032
23.8,363.157,0.410126
23.8017,363.141,0.410213
23.8033,363.124,0.410289
23.805,363.107,0.410365
23.8067,363.091,0.410437
23.8083,363.074,0.41051
23.81,363.058,0.41058
23.8117,363.041,0.410652
