Ramp 10.00 °C/min to 375.00 °C,,
Time,Temperature,Heat Flow (Normalized)
min,°C,W/g
5.00333,249.894,-0.151308
5.005,249.894,-0.151302
5.00667,249.894,-0.151305
5.00833,249.894,-0.151299
5.01,249.894,-0.151293
5.01167,249.894,-0.15129
5.01333,249.894,-0.151286
5.015,249.894,-0.15129
5.01667,249.894,-0.15129
5.01833,249.894,-0.151295
5.02,249.894,-0.151303
5.02167,249.894,-0.151318
5.02333,249.894,-0.151337
5.025,249.895,-0.151358
5.02667,249.895,-0.15138
5.02833,249.896,-0.151393
5.03,249.897,-0.151398
5.03167,249.898,-0.151405
5.03333,249.898,-0.151413
5.035,249.899,-0.151422
5.03667,249.9,-0.15143
5.03833,249.901,-0.151444
5.04,249.902,-0.151459
5.04167,249.903,-0.151473
5.04333,249.904,-0.15148
5.045,249.906,-0.151479
5.04667,249.907,-0.151461
5.04833,249.909,-0.151418
5.05,249.911,-0.151288
5.05167,249.913,-0.150977
5.05333,249.915,-0.150143
5.055,249.917,-0.148812
5.05667,249.919,-0.14687
5.05833,249.922,-0.144333
5.06,249.924,-0.140515
5.06167,249.927,-0.135127
5.06333,249.929,-0.127936
5.065,249.932,-0.120196
5.06667,249.935,-0.112597
5.06833,249.939,-0.106129
5.07,249.942,-0.100617
5.07167,249.946,-0.0951903
5.07333,249.95,-0.0905467
5.075,249.954,-0.0873321
5.07667,249.959,-0.0842781
5.07833,249.963,-0.0804652
5.08,249.968,-0.0758233
5.08167,249.973,-0.0710263
5.08333,249.978,-0.0686471
5.085,249.983,-0.0652817
5.08667,249.989,-0.0622971
5.08833,249.995,-0.0607497
5.09,250,-0.0593391
5.09167,250.006,-0.0583535
5.09333,250.013,-0.0575412
5.095,250.019,-0.0574643
5.09667,250.026,-0.0577684
5.09833,250.033,-0.057881
5.1,250.04,-0.0583369
5.10167,250.047,-0.0591061
5.10333,250.055,-0.0600556
5.105,250.063,-0.0612145
5.10667,250.071,-0.0622665
5.10833,250.079,-0.0664911
5.11,250.087,-0.0690874
5.11167,250.095,-0.0708468
5.11333,250.104,-0.0719804
5.115,250.112,-0.0726274
5.11667,250.122,-0.073782
5.11833,250.131,-0.0754231
5.12,250.139,-0.0783448
5.12167,250.149,-0.0826019
5.12333,250.158,-0.0893956
5.125,250.168,-0.0992053
5.12667,250.178,-0.110809
5.12833,250.188,-0.124186
5.13,250.198,-0.138099
5.13167,250.208,-0.148115
5.13333,250.219,-0.156062
5.135,250.229,-0.164477
5.13667,250.24,-0.172216
5.13833,250.251,-0.180955
5.14,250.262,-0.189625
5.14167,250.273,-0.197667
5.14333,250.284,-0.205622
5.145,250.295,-0.213289
5.14667,250.307,-0.220575
5.14833,250.318,-0.227227
5.15,250.33,-0.234963
5.15167,250.342,-0.242023
5.15333,250.353,-0.24969
5.155,250.365,-0.256933
5.15667,250.377,-0.265406
5.15833,250.389,-0.272476
5.16,250.401,-0.280272
5.16167,250.413,-0.287464
5.16333,250.426,-0.294947
5.165,250.438,-0.30145
5.16667,250.451,-0.308886
5.16833,250.464,-0.316305
5.17,250.476,-0.323115
5.17167,250.489,-0.330499
5.17333,250.502,-0.337015
5.175,250.515,-0.344596
5.17667,250.528,-0.350768
5.17833,250.542,-0.358176
5.18,250.555,-0.363841
5.18167,250.568,-0.369727
5.18333,250.581,-0.375898
5.185,250.595,-0.382481
5.18667,250.608,-0.386371
5.18833,250.622,-0.39124
5.19,250.635,-0.397122
5.19167,250.649,-0.401719
5.19333,250.662,-0.408275
5.195,250.676,-0.412813
5.19667,250.69,-0.41653
5.19833,250.704,-0.421161
5.2,250.717,-0.426757
5.20167,250.732,-0.431004
5.20333,250.745,-0.434108
5.205,250.76,-0.43872
5.20667,250.774,-0.443598
5.20833,250.788,-0.447861
5.21,250.802,-0.452472
5.21167,250.817,-0.455663
5.21333,250.831,-0.459692
5.215,250.845,-0.462462
5.21667,250.86,-0.466262
5.21833,250.874,-0.471568
5.22,250.889,-0.476226
5.22167,250.904,-0.480053
5.22333,250.918,-0.484036
5.225,250.932,-0.488062
5.22667,250.947,-0.491027
5.22833,250.962,-0.495503
5.23,250.977,-0.498734
5.23167,250.992,-0.501247
5.23333,251.006,-0.50394
5.235,251.021,-0.507053
5.23667,251.036,-0.510052
5.23833,251.051,-0.513753
5.24,251.066,-0.517143
5.24167,251.081,-0.520358
5.24333,251.096,-0.522937
5.245,251.111,-0.525276
5.24667,251.126,-0.526898
5.24833,251.141,-0.529449
5.25,251.156,-0.531807
5.25167,251.172,-0.534036
5.25333,251.187,-0.537
5.255,251.202,-0.539472
5.25667,251.218,-0.542778
5.25833,251.233,-0.54537
5.26,251.248,-0.547964
5.26167,251.263,-0.551414
5.26333,251.278,-0.554723
5.265,251.294,-0.557791
5.26667,251.309,-0.559527
5.26833,251.325,-0.561977
5.27,251.34,-0.563619
5.27167,251.355,-0.565147
5.27333,251.371,-0.567278
5.275,251.386,-0.569839
5.27667,251.402,-0.572357
5.27833,251.417,-0.575245
5.28,251.433,-0.576848
5.28167,251.449,-0.579816
5.28333,251.464,-0.581006
5.285,251.48,-0.581972
5.28667,251.496,-0.583809
5.28833,251.511,-0.584216
5.29,251.527,-0.584728
5.29167,251.543,-0.585488
5.29333,251.558,-0.586885
5.295,251.574,-0.588038
5.29667,251.59,-0.589378
5.29833,251.605,-0.59117
5.3,251.621,-0.593534
5.30167,251.637,-0.595127
5.30333,251.653,-0.597203
5.305,251.669,-0.59946
5.30667,251.685,-0.601382
5.30833,251.701,-0.602636
5.31,251.716,-0.603595
5.31167,251.732,-0.604952
5.31333,251.748,-0.605771
5.315,251.764,-0.606553
5.31667,251.779,-0.608253
5.31833,251.795,-0.61008
5.32,251.812,-0.612386
5.32167,251.827,-0.613622
5.32333,251.843,-0.614945
5.325,251.859,-0.616046
5.32667,251.876,-0.616625
5.32833,251.891,-0.616871
5.33,251.908,-0.616928
5.33167,251.924,-0.617414
5.33333,251.94,-0.618323
5.335,251.956,-0.61915
5.33667,251.972,-0.620257
5.33833,251.988,-0.62152
5.34,252.004,-0.622748
5.34167,252.02,-0.624292
5.34333,252.036,-0.625902
5.345,252.052,-0.627195
5.34667,252.068,-0.628288
5.34833,252.085,-0.629297
5.35,252.1,-0.630146
5.35167,252.117,-0.630987
5.35333,252.132,-0.631601
5.355,252.149,-0.632028
5.35667,252.165,-0.6325
5.35833,252.181,-0.632879
5.36,252.197,-0.633447
5.36167,252.213,-0.63424
5.36333,252.229,-0.63493
5.365,252.246,-0.635376
5.36667,252.262,-0.635898
5.36833,252.278,-0.636365
5.37,252.294,-0.636878
5.37167,252.311,-0.63731
5.37333,252.326,-0.637683
5.375,252.343,-0.6382
5.37667,252.359,-0.638718
5.37833,252.375,-0.639461
5.38,252.391,-0.640227
5.38167,252.407,-0.641082
5.38333,252.423,-0.641879
5.385,252.44,-0.642455
5.38667,252.456,-0.642931
5.38833,252.472,-0.643457
5.39,252.488,-0.643982
5.39167,252.504,-0.644512
5.39333,252.52,-0.64497
5.395,252.537,-0.645342
5.39667,252.553,-0.645812
5.39833,252.569,-0.646223
5.4,252.585,-0.646736
5.40167,252.602,-0.647258
5.40333,252.618,-0.64766
5.405,252.634,-0.647956
5.40667,252.65,-0.648346
5.40833,252.667,-0.648706
5.41,252.683,-0.649124
5.41167,252.699,-0.649493
5.41333,252.716,-0.649868
5.415,252.732,-0.650247
5.41667,252.749,-0.650548
5.41833,252.765,-0.650811
5.42,252.781,-0.651047
5.42167,252.797,-0.651243
5.42333,252.814,-0.651488
5.425,252.83,-0.65173
5.42667,252.846,-0.652013
5.42833,252.862,-0.65238
5.43,252.879,-0.652781
5.43167,252.895,-0.653332
5.43333,252.911,-0.653732
5.435,252.927,-0.65404
5.43667,252.944,-0.654228
5.43833,252.96,-0.654409
5.44,252.977,-0.654572
5.44167,252.993,-0.654743
5.44333,253.009,-0.655051
5.445,253.026,-0.655436
5.44667,253.042,-0.65597
5.44833,253.058,-0.656472
5.45,253.075,-0.657028
5.45167,253.091,-0.657549
5.45333,253.107,-0.658026
5.455,253.123,-0.658337
5.45667,253.14,-0.658495
5.45833,253.156,-0.658579
5.46,253.172,-0.658662
5.46167,253.188,-0.65879
5.46333,253.205,-0.658894
5.465,253.221,-0.65903
5.46667,253.238,-0.659224
5.46833,253.254,-0.659557
5.47,253.27,-0.659971
5.47167,253.287,-0.660326
5.47333,253.303,-0.660757
5.475,253.32,-0.66132
5.47667,253.336,-0.66181
5.47833,253.352,-0.662202
5.48,253.369,-0.662511
5.48167,253.385,-0.662698
5.48333,253.401,-0.662822
5.485,253.418,-0.662921
5.48667,253.434,-0.662982
5.48833,253.45,-0.6634
5.49,253.467,-0.663689
5.49167,253.483,-0.663967
5.49333,253.5,-0.664005
5.495,253.516,-0.664043
5.49667,253.533,-0.664087
5.49833,253.549,-0.664178
5.5,253.566,-0.664324
5.50167,253.582,-0.664432
5.50333,253.598,-0.664519
5.505,253.615,-0.664625
5.50667,253.631,-0.664737
5.50833,253.647,-0.664849
5.51,253.664,-0.664962
5.51167,253.68,-0.66506
5.51333,253.697,-0.665171
5.515,253.713,-0.665264
5.51667,253.73,-0.665414
5.51833,253.746,-0.66554
5.52,253.762,-0.665662
5.52167,253.779,-0.665801
5.52333,253.795,-0.666002
5.525,253.812,-0.66615
5.52667,253.828,-0.666255
5.52833,253.844,-0.666384
5.53,253.861,-0.666578
5.53167,253.877,-0.666753
5.53333,253.894,-0.66694
5.535,253.91,-0.667144
5.53667,253.927,-0.66745
5.53833,253.943,-0.667777
5.54,253.959,-0.66804
5.54167,253.976,-0.668391
5.54333,253.992,-0.668674
5.545,254.009,-0.668888
5.54667,254.025,-0.669037
5.54833,254.042,-0.669128
5.55,254.058,-0.669224
5.55167,254.075,-0.669332
5.55333,254.091,-0.669432
5.555,254.108,-0.669527
5.55667,254.124,-0.669612
5.55833,254.141,-0.669908
5.56,254.157,-0.66999
5.56167,254.173,-0.670068
5.56333,254.189,-0.670148
5.565,254.206,-0.670229
5.56667,254.223,-0.670308
5.56833,254.239,-0.670385
5.57,254.255,-0.670462
5.57167,254.272,-0.670546
5.57333,254.288,-0.670638
5.575,254.305,-0.670802
5.57667,254.321,-0.670915
5.57833,254.338,-0.671057
5.58,254.355,-0.671157
5.58167,254.371,-0.671262
5.58333,254.387,-0.671413
5.585,254.404,-0.671537
5.58667,254.42,-0.671659
5.58833,254.437,-0.671804
5.59,254.453,-0.671926
5.59167,254.47,-0.672037
5.59333,254.486,-0.672136
5.595,254.502,-0.672231
5.59667,254.519,-0.672325
5.59833,254.536,-0.672421
5.6,254.552,-0.672512
5.60167,254.568,-0.672604
5.60333,254.585,-0.672696
5.605,254.601,-0.672796
5.60667,254.618,-0.672903
5.60833,254.634,-0.673023
5.61,254.65,-0.673159
5.61167,254.667,-0.673321
5.61333,254.683,-0.673502
5.615,254.7,-0.673669
5.61667,254.716,-0.673793
5.61833,254.733,-0.673904
5.62,254.749,-0.674001
5.62167,254.766,-0.674102
5.62333,254.783,-0.674205
5.625,254.799,-0.674318
5.62667,254.816,-0.674433
5.62833,254.832,-0.674538
5.63,254.849,-0.674642
5.63167,254.865,-0.674744
5.63333,254.882,-0.674856
5.635,254.898,-0.674982
5.63667,254.915,-0.675074
5.63833,254.931,-0.675157
5.64,254.947,-0.675243
5.64167,254.964,-0.675331
5.64333,254.98,-0.675421
5.645,254.997,-0.675518
5.64667,255.013,-0.675623
5.64833,255.03,-0.675733
5.65,255.046,-0.675845
5.65167,255.063,-0.675955
5.65333,255.079,-0.676067
5.655,255.096,-0.676175
5.65667,255.112,-0.676284
5.65833,255.128,-0.676393
5.66,255.145,-0.676499
5.66167,255.162,-0.676599
5.66333,255.178,-0.676701
5.665,255.194,-0.676792
5.66667,255.211,-0.676879
5.66833,255.228,-0.676966
5.67,255.244,-0.677056
5.67167,255.261,-0.677144
5.67333,255.278,-0.677235
5.675,255.294,-0.677335
5.67667,255.311,-0.677447
5.67833,255.327,-0.677558
5.68,255.344,-0.677676
5.68167,255.36,-0.677791
5.68333,255.377,-0.677911
5.685,255.393,-0.678048
5.68667,255.409,-0.678189
5.68833,255.426,-0.678308
5.69,255.442,-0.678429
5.69167,255.458,-0.678546
5.69333,255.475,-0.678662
5.695,255.491,-0.678781
5.69667,255.508,-0.678896
5.69833,255.525,-0.679002
5.7,255.541,-0.6791
5.70167,255.558,-0.679195
5.70333,255.574,-0.679282
5.705,255.591,-0.67938
5.70667,255.608,-0.679481
5.70833,255.624,-0.679588
5.71,255.64,-0.679703
5.71167,255.657,-0.679822
5.71333,255.673,-0.679946
5.715,255.689,-0.68011
5.71667,255.706,-0.680286
5.71833,255.722,-0.680413
5.72,255.739,-0.680534
5.72167,255.756,-0.680655
5.72333,255.772,-0.680775
5.725,255.788,-0.680887
5.72667,255.805,-0.680998
5.72833,255.821,-0.681103
5.73,255.838,-0.681212
5.73167,255.855,-0.681319
5.73333,255.871,-0.68143
5.735,255.888,-0.681536
5.73667,255.904,-0.681632
5.73833,255.921,-0.681711
5.74,255.937,-0.681797
5.74167,255.953,-0.681885
5.74333,255.97,-0.681975
5.745,255.987,-0.682068
5.74667,256.003,-0.682151
5.74833,256.02,-0.682248
5.75,256.036,-0.682356
5.75167,256.053,-0.682472
5.75333,256.069,-0.682592
5.755,256.086,-0.682707
5.75667,256.102,-0.682821
5.75833,256.119,-0.682933
5.76,256.135,-0.683053
5.76167,256.152,-0.683174
5.76333,256.168,-0.683297
5.765,256.185,-0.68342
5.76667,256.202,-0.683555
5.76833,256.218,-0.683682
5.77,256.234,-0.68381
5.77167,256.251,-0.68393
5.77333,256.267,-0.684046
5.775,256.284,-0.684148
5.77667,256.301,-0.684245
5.77833,256.317,-0.684344
5.78,256.334,-0.684441
5.78167,256.35,-0.684533
5.78333,256.367,-0.684631
5.785,256.383,-0.684738
5.78667,256.4,-0.68485
5.78833,256.416,-0.684972
5.79,256.433,-0.685091
5.79167,256.45,-0.685206
5.79333,256.466,-0.685322
5.795,256.483,-0.685443
5.79667,256.499,-0.685556
5.79833,256.515,-0.685661
5.8,256.532,-0.685758
5.80167,256.549,-0.685858
5.80333,256.566,-0.68596
5.805,256.582,-0.68607
5.80667,256.598,-0.686184
5.80833,256.615,-0.686291
5.81,256.632,-0.686402
5.81167,256.648,-0.686515
5.81333,256.665,-0.686632
5.815,256.681,-0.686749
5.81667,256.698,-0.686859
5.81833,256.714,-0.686961
5.82,256.731,-0.687057
5.82167,256.747,-0.687157
5.82333,256.764,-0.68726
5.825,256.78,-0.687362
5.82667,256.797,-0.687465
5.82833,256.813,-0.687569
5.83,256.83,-0.68767
5.83167,256.846,-0.687779
5.83333,256.863,-0.687886
5.835,256.879,-0.687987
5.83667,256.896,-0.688086
5.83833,256.912,-0.68818
5.84,256.929,-0.688273
5.84167,256.945,-0.688365
5.84333,256.962,-0.688448
5.845,256.978,-0.688529
5.84667,256.995,-0.688615
5.84833,257.011,-0.688699
5.85,257.028,-0.688799
5.85167,257.045,-0.6889
5.85333,257.061,-0.689001
5.855,257.078,-0.689104
5.85667,257.094,-0.689206
5.85833,257.111,-0.689307
5.86,257.127,-0.689409
5.86167,257.144,-0.689506
5.86333,257.161,-0.689598
5.865,257.177,-0.689691
5.86667,257.194,-0.689792
5.86833,257.211,-0.689896
5.87,257.227,-0.690006
5.87167,257.244,-0.690118
5.87333,257.26,-0.690228
5.875,257.277,-0.690332
5.87667,257.293,-0.690429
5.87833,257.31,-0.690522
5.88,257.326,-0.69061
5.88167,257.343,-0.690697
5.88333,257.359,-0.690772
5.885,257.376,-0.690834
5.88667,257.392,-0.690892
5.88833,257.409,-0.690943
5.89,257.425,-0.690995
5.89167,257.442,-0.691048
5.89333,257.459,-0.691106
5.895,257.475,-0.691173
5.89667,257.492,-0.691248
5.89833,257.508,-0.691332
5.9,257.525,-0.691422
5.90167,257.542,-0.691519
5.90333,257.558,-0.691625
5.905,257.574,-0.69173
5.90667,257.591,-0.691833
5.90833,257.608,-0.691935
5.91,257.624,-0.692038
5.91167,257.641,-0.692148
5.91333,257.658,-0.692263
5.915,257.674,-0.692373
5.91667,257.69,-0.692483
5.91833,257.707,-0.692607
5.92,257.723,-0.692723
5.92167,257.74,-0.692837
5.92333,257.756,-0.692949
5.925,257.773,-0.693058
5.92667,257.79,-0.693166
5.92833,257.806,-0.693283
5.93,257.823,-0.693401
5.93167,257.839,-0.693509
5.93333,257.856,-0.693622
5.935,257.872,-0.693731
5.93667,257.889,-0.693835
5.93833,257.906,-0.693927
5.94,257.922,-0.694009
5.94167,257.938,-0.694094
5.94333,257.955,-0.694179
5.945,257.972,-0.694263
5.94667,257.988,-0.694347
5.94833,258.005,-0.694428
5.95,258.021,-0.694509
5.95167,258.038,-0.694592
5.95333,258.055,-0.694682
5.955,258.071,-0.69477
5.95667,258.088,-0.694862
5.95833,258.104,-0.694949
5.96,258.121,-0.695031
5.96167,258.138,-0.695117
5.96333,258.154,-0.6952
5.965,258.171,-0.695282
5.96667,258.187,-0.695356
5.96833,258.204,-0.695426
5.97,258.22,-0.695499
5.97167,258.237,-0.695568
5.97333,258.253,-0.695634
5.975,258.27,-0.695703
5.97667,258.287,-0.695775
5.97833,258.304,-0.695841
5.98,258.32,-0.695906
5.98167,258.337,-0.695965
5.98333,258.353,-0.696039
5.985,258.37,-0.696113
5.98667,258.387,-0.69618
5.98833,258.403,-0.696244
5.99,258.42,-0.696314
5.99167,258.436,-0.696384
5.99333,258.453,-0.696458
5.995,258.469,-0.696532
5.99667,258.486,-0.696605
5.99833,258.503,-0.696682
6,258.519,-0.696754
6.00167,258.536,-0.696832
6.00333,258.552,-0.696916
6.005,258.569,-0.696995
6.00667,258.586,-0.697082
6.00833,258.602,-0.697179
6.01,258.618,-0.697273
6.01167,258.635,-0.69738
6.01333,258.652,-0.697473
6.015,258.668,-0.697567
6.01667,258.685,-0.697659
6.01833,258.701,-0.69775
6.02,258.718,-0.697842
6.02167,258.735,-0.697928
6.02333,258.751,-0.698013
6.025,258.768,-0.698097
6.02667,258.784,-0.698173
6.02833,258.801,-0.698241
6.03,258.818,-0.69831
6.03167,258.834,-0.698382
6.03333,258.851,-0.698454
6.035,258.868,-0.69852
6.03667,258.884,-0.698585
6.03833,258.901,-0.698644
6.04,258.918,-0.698713
6.04167,258.934,-0.698785
6.04333,258.951,-0.698856
6.045,258.967,-0.698923
6.04667,258.984,-0.698994
6.04833,259,-0.699078
6.05,259.017,-0.699167
6.05167,259.033,-0.699267
6.05333,259.05,-0.699402
6.055,259.066,-0.699538
6.05667,259.083,-0.699638
6.05833,259.1,-0.699727
6.06,259.116,-0.69981
6.06167,259.132,-0.69989
6.06333,259.15,-0.699957
6.065,259.166,-0.700022
6.06667,259.182,-0.700083
6.06833,259.199,-0.700147
6.07,259.216,-0.700213
6.07167,259.232,-0.700285
6.07333,259.249,-0.70036
6.075,259.265,-0.700427
6.07667,259.282,-0.700489
6.07833,259.298,-0.700548
6.08,259.315,-0.700604
6.08167,259.332,-0.700664
6.08333,259.348,-0.700725
6.085,259.365,-0.700782
6.08667,259.382,-0.700849
6.08833,259.398,-0.700921
6.09,259.415,-0.701003
6.09167,259.431,-0.701084
6.09333,259.448,-0.701166
6.095,259.465,-0.701243
6.09667,259.482,-0.701327
6.09833,259.498,-0.701414
6.1,259.515,-0.701501
6.10167,259.531,-0.701584
6.10333,259.548,-0.701653
6.105,259.565,-0.701712
6.10667,259.581,-0.701758
6.10833,259.598,-0.701794
6.11,259.614,-0.701832
6.11167,259.631,-0.701874
6.11333,259.648,-0.701921
6.115,259.664,-0.701979
6.11667,259.68,-0.702057
6.11833,259.697,-0.702146
6.12,259.714,-0.702265
6.12167,259.73,-0.702372
6.12333,259.747,-0.702539
6.125,259.763,-0.702746
6.12667,259.78,-0.702834
6.12833,259.797,-0.702919
6.13,259.813,-0.702995
6.13167,259.83,-0.703062
6.13333,259.846,-0.703123
6.135,259.863,-0.703175
6.13667,259.879,-0.703233
6.13833,259.896,-0.703279
6.14,259.913,-0.703318
6.14167,259.929,-0.703348
6.14333,259.946,-0.703379
6.145,259.962,-0.703407
6.14667,259.979,-0.703438
6.14833,259.996,-0.703479
6.15,260.012,-0.703529
6.15167,260.028,-0.703578
6.15333,260.045,-0.703636
6.155,260.062,-0.703706
6.15667,260.078,-0.703773
6.15833,260.095,-0.703835
6.16,260.112,-0.703889
6.16167,260.128,-0.703937
6.16333,260.145,-0.703986
6.165,260.161,-0.704032
6.16667,260.178,-0.70408
6.16833,260.195,-0.704126
6.17,260.211,-0.70417
6.17167,260.228,-0.704216
6.17333,260.244,-0.704261
6.175,260.261,-0.704306
6.17667,260.277,-0.704356
6.17833,260.294,-0.704412
6.18,260.31,-0.704469
6.18167,260.327,-0.704528
6.18333,260.344,-0.704589
6.185,260.361,-0.704653
6.18667,260.377,-0.704722
6.18833,260.394,-0.704781
6.19,260.411,-0.704835
6.19167,260.427,-0.704888
6.19333,260.444,-0.70494
6.195,260.46,-0.704999
6.19667,260.477,-0.705054
6.19833,260.493,-0.705102
6.2,260.51,-0.705155
6.20167,260.527,-0.705203
6.20333,260.543,-0.705259
6.205,260.56,-0.705321
6.20667,260.577,-0.705373
6.20833,260.594,-0.705433
6.21,260.61,-0.705493
6.21167,260.626,-0.705547
6.21333,260.643,-0.705606
6.215,260.66,-0.705657
6.21667,260.676,-0.7057
6.21833,260.692,-0.705747
6.22,260.709,-0.705794
6.22167,260.726,-0.705844
6.22333,260.743,-0.705897
6.225,260.759,-0.70595
6.22667,260.776,-0.705992
6.22833,260.793,-0.706037
6.23,260.81,-0.706079
6.23167,260.826,-0.706114
6.23333,260.843,-0.706151
6.235,260.859,-0.706195
6.23667,260.876,-0.706241
6.23833,260.893,-0.706291
6.24,260.909,-0.706341
6.24167,260.926,-0.706403
6.24333,260.942,-0.70648
6.245,260.959,-0.706554
6.24667,260.975,-0.706624
6.24833,260.992,-0.706689
6.25,261.009,-0.706754
6.25167,261.025,-0.706818
6.25333,261.042,-0.706874
6.255,261.059,-0.706928
6.25667,261.076,-0.706977
6.25833,261.092,-0.70703
6.26,261.109,-0.707094
6.26167,261.125,-0.707155
6.26333,261.142,-0.707215
6.265,261.158,-0.707277
6.26667,261.175,-0.707341
6.26833,261.191,-0.707394
6.27,261.208,-0.707442
6.27167,261.225,-0.707484
6.27333,261.241,-0.707526
6.275,261.258,-0.707566
6.27667,261.275,-0.7076
6.27833,261.291,-0.707646
