Ramp 10.00 °C/min to 250.00 °C,,
Time,Temperature,Heat Flow (Normalized)
min,°C,W/g
22.51,374.72,-0.348784
22.5117,374.721,-0.348791
22.5133,374.722,-0.348795
22.515,374.721,-0.348797
22.5167,374.721,-0.348795
22.5183,374.721,-0.348789
22.52,374.721,-0.348781
22.5217,374.721,-0.348772
22.5233,374.721,-0.348761
22.525,374.721,-0.348749
22.5267,374.721,-0.348742
22.5283,374.721,-0.348748
22.53,374.721,-0.348753
22.5317,374.72,-0.348754
22.5333,374.72,-0.348754
22.535,374.719,-0.348753
22.5367,374.718,-0.348742
22.5383,374.717,-0.348727
22.54,374.716,-0.34871
22.5417,374.715,-0.348684
22.5433,374.714,-0.348646
22.545,374.713,-0.348493
22.5467,374.712,-0.348245
22.5483,374.71,-0.347742
22.55,374.709,-0.347117
22.5517,374.708,-0.346342
22.5533,374.706,-0.34546
22.555,374.704,-0.344392
22.5567,374.702,-0.343288
22.5583,374.7,-0.341989
22.56,374.697,-0.340788
22.5617,374.695,-0.339642
22.5633,374.692,-0.338163
22.565,374.69,-0.336747
22.5667,374.687,-0.334856
22.5683,374.684,-0.332468
22.57,374.68,-0.330213
22.5717,374.677,-0.327948
22.5733,374.674,-0.325725
22.575,374.67,-0.323598
22.5767,374.666,-0.32103
22.5783,374.662,-0.318634
22.58,374.657,-0.316335
22.5817,374.653,-0.314152
22.5833,374.648,-0.312018
22.585,374.643,-0.309837
22.5867,374.638,-0.307604
22.5883,374.633,-0.304096
22.59,374.627,-0.300102
22.5917,374.622,-0.2964
22.5933,374.616,-0.292731
22.595,374.61,-0.28872
22.5967,374.603,-0.284629
22.5983,374.596,-0.279925
22.6,374.59,-0.276133
22.6017,374.583,-0.271318
22.6033,374.576,-0.266311
22.605,374.568,-0.262365
22.6067,374.561,-0.257057
22.6083,374.553,-0.251256
22.61,374.545,-0.245191
22.6117,374.537,-0.239252
22.6133,374.529,-0.233478
22.615,374.521,-0.225848
22.6167,374.512,-0.219143
22.6183,374.503,-0.213311
22.62,374.494,-0.205854
22.6217,374.486,-0.198305
22.6233,374.476,-0.190921
22.625,374.467,-0.183491
22.6267,374.457,-0.177165
22.6283,374.448,-0.169868
22.63,374.438,-0.162971
22.6317,374.428,-0.155234
22.6333,374.417,-0.146407
22.635,374.407,-0.139031
22.6367,374.397,-0.13059
22.6383,374.386,-0.122609
22.64,374.375,-0.114579
22.6417,374.364,-0.105781
22.6433,374.354,-0.0971473
22.645,374.343,-0.0891638
22.6467,374.332,-0.0812714
22.6483,374.321,-0.0728066
22.65,374.309,-0.0662781
22.6517,374.298,-0.0568983
22.6533,374.286,-0.0491622
22.655,374.274,-0.0401375
22.6567,374.262,-0.0324188
22.6583,374.25,-0.0235278
22.66,374.239,-0.0168201
22.6617,374.226,-0.00935014
22.6633,374.214,-0.00205121
22.665,374.202,0.00629783
22.6667,374.19,0.0139522
22.6683,374.177,0.0213202
22.67,374.165,0.0284608
22.6717,374.152,0.035558
22.6733,374.14,0.0421264
22.675,374.127,0.050069
22.6767,374.114,0.0585968
22.6783,374.101,0.0659475
22.68,374.088,0.0719341
22.6817,374.075,0.0798528
22.6833,374.062,0.0876222
22.685,374.049,0.0940028
22.6867,374.035,0.10184
22.6883,374.022,0.108587
22.69,374.009,0.115381
22.6917,373.995,0.120958
22.6933,373.981,0.127186
22.695,373.968,0.133453
22.6967,373.954,0.138806
22.6983,373.94,0.142781
22.7,373.925,0.147851
22.7017,373.912,0.153302
22.7033,373.899,0.158333
22.705,373.885,0.16432
22.7067,373.871,0.170496
22.7083,373.857,0.176881
22.71,373.843,0.182892
22.7117,373.828,0.189305
22.7133,373.814,0.195748
22.715,373.8,0.20197
22.7167,373.786,0.205447
22.7183,373.771,0.210005
22.72,373.757,0.214749
22.7217,373.742,0.220021
22.7233,373.728,0.224827
22.725,373.713,0.229681
22.7267,373.698,0.233454
22.7283,373.684,0.238296
22.73,373.669,0.243243
22.7317,373.654,0.248339
22.7333,373.639,0.253793
22.735,373.625,0.25832
22.7367,373.61,0.262241
22.7383,373.595,0.267014
22.74,373.58,0.27209
22.7417,373.566,0.276665
22.7433,373.551,0.280036
22.745,373.535,0.283785
22.7467,373.52,0.286903
22.7483,373.505,0.291034
22.75,373.49,0.294775
22.7517,373.475,0.297369
22.7533,373.46,0.30091
22.755,373.444,0.305141
22.7567,373.429,0.309451
22.7583,373.414,0.31218
22.76,373.399,0.316515
22.7617,373.384,0.321026
22.7633,373.368,0.323722
22.765,373.353,0.326436
22.7667,373.337,0.331697
22.7683,373.322,0.33486
22.77,373.307,0.337942
22.7717,373.291,0.341887
22.7733,373.276,0.345299
22.775,373.261,0.348529
22.7767,373.245,0.352041
22.7783,373.229,0.352628
22.78,373.214,0.356165
22.7817,373.199,0.359117
22.7833,373.183,0.361818
22.785,373.167,0.364435
22.7867,373.152,0.36697
22.7883,373.136,0.36893
22.79,373.12,0.37196
22.7917,373.104,0.373707
22.7933,373.089,0.376668
22.795,373.073,0.379283
22.7967,373.058,0.381761
22.7983,373.042,0.381897
22.8,373.026,0.384256
22.8017,373.01,0.387145
22.8033,372.995,0.389366
22.805,372.979,0.391305
22.8067,372.963,0.392907
22.8083,372.948,0.395674
22.81,372.932,0.398439
22.8117,372.916,0.400034
22.8133,372.9,0.403701
22.815,372.885,0.405753
22.8167,372.868,0.408423
22.8183,372.853,0.410323
22.82,372.837,0.411428
22.8217,372.821,0.412587
22.8233,372.805,0.414289
22.825,372.789,0.415283
22.8267,372.773,0.417312
22.8283,372.757,0.418934
22.83,372.741,0.420492
22.8317,372.725,0.421182
22.8333,372.709,0.421977
22.835,372.693,0.424108
22.8367,372.678,0.426669
22.8383,372.662,0.42905
22.84,372.646,0.431424
22.8417,372.63,0.433066
22.8433,372.614,0.434486
22.845,372.598,0.43633
22.8467,372.582,0.437497
22.8483,372.566,0.439048
22.85,372.55,0.439792
22.8517,372.534,0.440528
22.8533,372.518,0.4418
22.855,372.501,0.442302
22.8567,372.485,0.442845
22.8583,372.469,0.444183
22.86,372.453,0.445862
22.8617,372.437,0.447793
22.8633,372.421,0.449353
22.865,372.405,0.450677
22.8667,372.389,0.451821
22.8683,372.373,0.452888
22.87,372.357,0.453903
22.8717,372.341,0.454711
22.8733,372.324,0.455433
22.875,372.309,0.456226
22.8767,372.292,0.457334
22.8783,372.276,0.458462
22.88,372.26,0.459714
22.8817,372.244,0.461039
22.8833,372.227,0.46227
22.885,372.212,0.46348
22.8867,372.196,0.464351
22.8883,372.18,0.465372
22.89,372.164,0.466492
22.8917,372.147,0.467203
22.8933,372.131,0.46809
22.895,372.115,0.468952
22.8967,372.099,0.469862
22.8983,372.082,0.47079
22.9,372.066,0.471637
22.9017,372.05,0.472229
22.9033,372.034,0.472903
22.905,372.017,0.473695
22.9067,372.001,0.474508
22.9083,371.985,0.474918
22.91,371.969,0.475283
22.9117,371.953,0.476004
22.9133,371.936,0.476731
22.915,371.921,0.477526
22.9167,371.904,0.47821
22.9183,371.887,0.478726
22.92,371.872,0.479266
22.9217,371.856,0.479864
22.9233,371.839,0.480561
22.925,371.823,0.481075
22.9267,371.804,0.481484
22.9283,371.79,0.482136
22.93,371.774,0.482757
22.9317,371.758,0.483415
22.9333,371.743,0.484314
22.935,371.727,0.48539
22.9367,371.71,0.486403
22.9383,371.693,0.48741
22.94,371.677,0.488236
22.9417,371.66,0.488876
22.9433,371.645,0.489505
22.945,371.628,0.489895
22.9467,371.612,0.490262
22.9483,371.596,0.490619
22.95,371.579,0.490947
22.9517,371.563,0.491253
22.9533,371.547,0.491503
22.955,371.53,0.491706
22.9567,371.514,0.492049
22.9583,371.497,0.492396
22.96,371.481,0.492784
22.9617,371.465,0.493228
22.9633,371.449,0.493751
22.965,371.433,0.494424
22.9667,371.416,0.495202
22.9683,371.401,0.495903
22.97,371.385,0.496515
22.9717,371.368,0.497098
22.9733,371.352,0.49766
22.975,371.336,0.498117
22.9767,371.321,0.498561
22.9783,371.305,0.498866
22.98,371.288,0.499245
22.9817,371.271,0.499571
22.9833,371.255,0.499965
22.985,371.238,0.500373
22.9867,371.221,0.500801
22.9883,371.205,0.501121
22.99,371.189,0.501509
22.9917,371.173,0.501977
22.9933,371.157,0.502568
22.995,371.14,0.503094
22.9967,371.124,0.50349
22.9983,371.107,0.503807
23,371.091,0.504158
23.0017,371.075,0.504481
23.0033,371.058,0.504805
23.005,371.042,0.505075
23.0067,371.026,0.50523
23.0083,371.009,0.505375
23.01,370.993,0.505668
23.0117,370.976,0.506056
23.0133,370.96,0.506385
23.015,370.944,0.506651
23.0167,370.927,0.507002
23.0183,370.911,0.507445
23.02,370.894,0.507848
23.0217,370.878,0.508316
23.0233,370.861,0.508762
23.025,370.846,0.509146
23.0267,370.829,0.50945
23.0283,370.813,0.509755
23.03,370.796,0.510033
23.0317,370.78,0.510229
23.0333,370.764,0.510403
23.035,370.747,0.510601
23.0367,370.731,0.510826
23.0383,370.714,0.511
23.04,370.698,0.511207
23.0417,370.681,0.511412
23.0433,370.665,0.511736
23.045,370.649,0.512184
23.0467,370.632,0.512488
23.0483,370.616,0.512707
23.05,370.6,0.512948
23.0517,370.583,0.513164
23.0533,370.567,0.513318
23.055,370.55,0.513471
23.0567,370.534,0.513589
23.0583,370.517,0.513743
23.06,370.501,0.513974
23.0617,370.484,0.514263
23.0633,370.468,0.514627
23.065,370.452,0.514903
23.0667,370.435,0.515161
23.0683,370.419,0.515459
23.07,370.402,0.515797
23.0717,370.386,0.516141
23.0733,370.37,0.516464
23.075,370.353,0.516734
23.0767,370.337,0.517076
23.0783,370.32,0.517375
23.08,370.304,0.517639
23.0817,370.288,0.517979
23.0833,370.271,0.518257
23.085,370.255,0.518443
23.0867,370.238,0.518658
23.0883,370.222,0.518821
23.09,370.206,0.519001
23.0917,370.189,0.519208
23.0933,370.173,0.519448
23.095,370.156,0.519688
23.0967,370.14,0.519845
23.0983,370.124,0.520052
23.1,370.107,0.520283
23.1017,370.091,0.520493
23.1033,370.075,0.52069
23.105,370.059,0.520875
23.1067,370.042,0.52101
23.1083,370.025,0.521093
23.11,370.009,0.521176
23.1117,369.992,0.52126
23.1133,369.976,0.521346
23.115,369.959,0.521432
23.1167,369.943,0.521545
23.1183,369.927,0.521726
23.12,369.91,0.521974
23.1217,369.893,0.522214
23.1233,369.877,0.522548
23.125,369.861,0.522815
23.1267,369.845,0.523082
23.1283,369.828,0.52324
23.13,369.812,0.523343
23.1317,369.796,0.523433
23.1333,369.779,0.523527
23.135,369.763,0.523656
23.1367,369.746,0.523801
23.1383,369.729,0.523992
23.14,369.713,0.524162
23.1417,369.697,0.524397
23.1433,369.68,0.524691
23.145,369.663,0.525019
23.1467,369.647,0.525269
23.1483,369.631,0.5255
23.15,369.614,0.525659
23.1517,369.598,0.525791
23.1533,369.581,0.525967
23.155,369.565,0.526181
23.1567,369.548,0.526344
23.1583,369.532,0.526474
23.16,369.516,0.526582
23.1617,369.499,0.526693
23.1633,369.483,0.526812
23.165,369.466,0.526919
23.1667,369.449,0.527023
23.1683,369.433,0.527127
23.17,369.417,0.527226
23.1717,369.4,0.527336
23.1733,369.384,0.52749
23.175,369.367,0.527703
23.1767,369.351,0.527899
23.1783,369.335,0.528121
23.18,369.318,0.528375
23.1817,369.302,0.528495
23.1833,369.285,0.528626
23.185,369.269,0.528741
23.1867,369.252,0.528858
23.1883,369.236,0.528973
23.19,369.22,0.529089
23.1917,369.203,0.529202
23.1933,369.187,0.529314
23.195,369.17,0.529422
23.1967,369.154,0.529528
23.1983,369.137,0.52964
23.2,369.12,0.529757
23.2017,369.104,0.529871
23.2033,369.088,0.530022
23.205,369.071,0.530249
23.2067,369.055,0.530432
23.2083,369.038,0.530699
23.21,369.022,0.531005
23.2117,369.005,0.531419
23.2133,368.989,0.531719
23.215,368.972,0.53202
23.2167,368.956,0.532201
23.2183,368.939,0.532355
23.22,368.923,0.532479
23.2217,368.906,0.532593
23.2233,368.89,0.532792
23.225,368.874,0.532957
23.2267,368.857,0.533096
23.2283,368.841,0.533204
23.23,368.824,0.533312
23.2317,368.808,0.533427
23.2333,368.791,0.533545
23.235,368.775,0.533665
23.2367,368.758,0.533793
23.2383,368.742,0.53392
23.24,368.725,0.534045
23.2417,368.708,0.534175
23.2433,368.692,0.534299
23.245,368.676,0.534418
23.2467,368.659,0.534534
23.2483,368.643,0.534647
23.25,368.626,0.534758
23.2517,368.61,0.534873
23.2533,368.593,0.535015
23.255,368.577,0.535164
23.2567,368.561,0.535298
23.2583,368.544,0.535473
23.26,368.528,0.535679
23.2617,368.512,0.53583
23.2633,368.495,0.535958
23.265,368.478,0.536086
23.2667,368.462,0.53621
23.2683,368.445,0.53632
23.27,368.429,0.53644
23.2717,368.412,0.536562
23.2733,368.396,0.53669
23.275,368.379,0.536811
23.2767,368.362,0.536929
23.2783,368.346,0.537052
23.28,368.329,0.537171
23.2817,368.313,0.537288
23.2833,368.296,0.537406
23.285,368.279,0.537526
23.2867,368.263,0.537652
23.2883,368.247,0.537775
23.29,368.231,0.537903
23.2917,368.215,0.538034
23.2933,368.198,0.538164
23.295,368.181,0.538299
23.2967,368.165,0.53848
23.2983,368.148,0.538661
23.3,368.132,0.538793
23.3017,368.115,0.538936
23.3033,368.099,0.539075
23.305,368.082,0.539209
23.3067,368.066,0.539346
23.3083,368.049,0.539481
23.31,368.033,0.539614
23.3117,368.016,0.539748
23.3133,368,0.539886
23.315,367.983,0.540028
23.3167,367.967,0.540166
23.3183,367.95,0.540308
23.32,367.934,0.54045
23.3217,367.918,0.54059
23.3233,367.901,0.540735
23.325,367.884,0.540878
23.3267,367.868,0.54101
23.3283,367.852,0.541137
23.33,367.835,0.541263
23.3317,367.818,0.541394
23.3333,367.801,0.541534
23.335,367.785,0.541661
23.3367,367.769,0.541787
23.3383,367.752,0.541915
23.34,367.736,0.542048
23.3417,367.719,0.542179
23.3433,367.703,0.542315
23.345,367.686,0.542452
23.3467,367.67,0.542587
23.3483,367.653,0.542722
23.35,367.637,0.542862
23.3517,367.62,0.542995
23.3533,367.604,0.543121
23.355,367.587,0.543252
23.3567,367.571,0.543385
23.3583,367.555,0.543524
23.36,367.538,0.543664
23.3617,367.522,0.543802
23.3633,367.506,0.543947
23.365,367.489,0.54412
23.3667,367.472,0.544282
23.3683,367.456,0.544428
23.37,367.439,0.544586
23.3717,367.422,0.544732
23.3733,367.406,0.544879
23.375,367.39,0.545018
23.3767,367.373,0.545153
23.3783,367.357,0.545287
23.38,367.34,0.545423
23.3817,367.324,0.545558
23.3833,367.307,0.545692
23.385,367.29,0.545824
23.3867,367.274,0.545957
23.3883,367.257,0.54609
23.39,367.241,0.546223
23.3917,367.224,0.546357
23.3933,367.207,0.546497
23.395,367.191,0.546635
23.3967,367.174,0.54678
23.3983,367.158,0.546958
23.4,367.142,0.547113
23.4017,367.125,0.547256
23.4033,367.109,0.547396
23.405,367.092,0.547534
23.4067,367.075,0.547665
23.4083,367.059,0.547798
23.41,367.042,0.547924
23.4117,367.026,0.548047
23.4133,367.009,0.54817
23.415,366.993,0.548298
23.4167,366.976,0.548434
23.4183,366.96,0.548571
23.42,366.943,0.548704
23.4217,366.927,0.548841
23.4233,366.91,0.54897
23.425,366.894,0.549106
23.4267,366.877,0.549237
23.4283,366.86,0.549365
23.43,366.844,0.549492
23.4317,366.827,0.549621
23.4333,366.811,0.54975
23.435,366.794,0.549883
23.4367,366.777,0.550013
23.4383,366.761,0.550146
23.44,366.744,0.550281
23.4417,366.728,0.550417
23.4433,366.711,0.550555
23.445,366.694,0.550683
23.4467,366.678,0.550817
23.4483,366.662,0.550956
23.45,366.644,0.551093
23.4517,366.628,0.551233
23.4533,366.612,0.55137
23.455,366.595,0.551515
23.4567,366.579,0.551658
23.4583,366.562,0.551796
23.46,366.545,0.551929
23.4617,366.529,0.552056
23.4633,366.512,0.552189
23.465,366.496,0.552321
23.4667,366.479,0.552442
23.4683,366.463,0.552566
23.47,366.447,0.552685
23.4717,366.43,0.552805
23.4733,366.414,0.552929
23.475,366.397,0.553055
23.4767,366.381,0.553182
23.4783,366.364,0.553313
23.48,366.347,0.553439
23.4817,366.331,0.55357
23.4833,366.315,0.553695
23.485,366.298,0.553824
23.4867,366.281,0.553951
23.4883,366.265,0.554076
23.49,366.248,0.554199
23.4917,366.232,0.554327
23.4933,366.215,0.554458
23.495,366.198,0.554583
23.4967,366.182,0.554712
23.4983,366.165,0.554847
23.5,366.149,0.554985
23.5017,366.133,0.555128
23.5033,366.116,0.555266
23.505,366.099,0.555396
23.5067,366.082,0.555516
23.5083,366.066,0.555642
23.51,366.049,0.555764
23.5117,366.033,0.555878
23.5133,366.016,0.555986
23.515,366,0.556095
23.5167,365.983,0.556216
23.5183,365.966,0.556336
23.52,365.95,0.556457
23.5217,365.933,0.556588
23.5233,365.917,0.556723
23.525,365.9,0.556856
23.5267,365.884,0.556983
23.5283,365.868,0.557108
23.53,365.851,0.557229
23.5317,365.835,0.557356
23.5333,365.818,0.557485
23.535,365.802,0.557643
23.5367,365.784,0.557784
23.5383,365.768,0.557919
23.54,365.751,0.558052
23.5417,365.735,0.55818
23.5433,365.718,0.558302
23.545,365.702,0.558414
23.5467,365.685,0.558523
23.5483,365.669,0.558628
23.55,365.652,0.558733
23.5517,365.635,0.558832
23.5533,365.619,0.558933
23.555,365.602,0.559034
23.5567,365.585,0.559138
23.5583,365.569,0.55925
23.56,365.552,0.559357
23.5617,365.536,0.55946
23.5633,365.52,0.559565
23.565,365.503,0.55968
23.5667,365.486,0.559795
23.5683,365.47,0.559911
23.57,365.453,0.560033
23.5717,365.437,0.560159
23.5733,365.42,0.560285
23.575,365.404,0.560417
23.5767,365.387,0.560542
23.5783,365.37,0.560666
23.58,365.354,0.56078
23.5817,365.338,0.560891
23.5833,365.321,0.561006
23.585,365.305,0.561116
23.5867,365.288,0.561215
23.5883,365.271,0.561323
23.59,365.255,0.561427
23.5917,365.238,0.561527
23.5933,365.221,0.561623
23.595,365.205,0.561717
23.5967,365.188,0.561818
23.5983,365.172,0.561925
23.6,365.155,0.562035
23.6017,365.138,0.56214
23.6033,365.122,0.56224
23.605,365.106,0.562349
23.6067,365.089,0.56245
23.6083,365.072,0.562554
23.61,365.056,0.562659
23.6117,365.039,0.562762
23.6133,365.023,0.562869
23.615,365.006,0.562979
23.6167,364.989,0.563092
23.6183,364.973,0.563208
23.62,364.956,0.563322
23.6217,364.94,0.563441
23.6233,364.923,0.563563
23.625,364.907,0.563678
23.6267,364.89,0.563793
23.6283,364.874,0.563913
23.63,364.857,0.564028
23.6317,364.84,0.564138
23.6333,364.824,0.564237
23.635,364.807,0.564335
23.6367,364.79,0.56443
23.6383,364.774,0.564524
23.64,364.757,0.56462
23.6417,364.741,0.56471
23.6433,364.725,0.564799
23.645,364.708,0.564897
23.6467,364.691,0.564995
23.6483,364.674,0.565105
23.65,364.658,0.565211
23.6517,364.641,0.565306
23.6533,364.625,0.565399
23.655,364.608,0.565489
23.6567,364.591,0.565578
23.6583,364.575,0.565667
23.66,364.559,0.565761
23.6617,364.542,0.565861
23.6633,364.525,0.565965
23.665,364.509,0.566076
23.6667,364.493,0.566182
23.6683,364.476,0.566286
23.67,364.459,0.566386
23.6717,364.443,0.566478
23.6733,364.426,0.566576
23.675,364.409,0.566678
23.6767,364.393,0.566774
23.6783,364.376,0.56688
23.68,364.36,0.566988
23.6817,364.343,0.5671
23.6833,364.326,0.567219
23.685,364.31,0.567331
23.6867,364.293,0.56744
23.6883,364.277,0.56754
23.69,364.261,0.567629
23.6917,364.244,0.567715
23.6933,364.227,0.567796
23.695,364.211,0.567875
23.6967,364.194,0.567962
23.6983,364.177,0.568048
23.7,364.16,0.568137
23.7017,364.144,0.568225
23.7033,364.128,0.568324
23.705,364.111,0.568418
23.7067,364.095,0.568504
23.7083,364.078,0.568586
23.71,364.061,0.568666
23.7117,364.045,0.568749
23.7133,364.028,0.568837
23.715,364.012,0.568928
23.7167,363.995,0.569022
23.7183,363.978,0.569124
23.72,363.962,0.569227
23.7217,363.945,0.569336
23.7233,363.928,0.569446
23.725,363.912,0.569546
23.7267,363.895,0.569646
23.7283,363.879,0.569745
23.73,363.862,0.569842
23.7317,363.845,0.569939
23.7333,363.829,0.570027
23.735,363.812,0.570111
23.7367,363.795,0.570202
23.7383,363.779,0.570289
23.74,363.763,0.57038
23.7417,363.746,0.570476
23.7433,363.729,0.570565
23.745,363.713,0.57065
23.7467,363.696,0.570728
23.7483,363.68,0.570805
23.75,363.663,0.570885
23.7517,363.647,0.57097
23.7533,363.63,0.571052
23.755,363.614,0.571141
23.7567,363.597,0.571229
23.7583,363.58,0.571325
23.76,363.564,0.571409
23.7617,363.547,0.571501
23.7633,363.531,0.571599
23.765,363.514,0.571696
23.7667,363.497,0.571789
23.7683,363.48,0.571887
23.77,363.464,0.571983
23.7717,363.448,0.572069
23.7733,363.431,0.572146
23.775,363.414,0.572221
23.7767,363.398,0.572295
23.7783,363.382,0.572364
23.78,363.365,0.572431
23.7817,363.348,0.572506
23.7833,363.331,0.572582
23.785,363.315,0.572654
23.7867,363.298,0.572733
23.7883,363.282,0.572814
23.79,363.265,0.572897
23.7917,363.249,0.572976
23.7933,363.232,0.573051
23.795,363.215,0.573128
23.7967,363.199,0.573209
23.7983,363.182,0.573284
23.8,363.165,0.573364
23.8017,363.149,0.573445
23.8033,363.132,0.573518
23.805,363.116,0.573592
23.8067,363.099,0.573674
23.8083,363.083,0.573751
23.81,363.066,0.573824
23.8117,363.049,0.573888
23.8133,363.033,0.573955
