Ramp 10.00 °C/min to 250.00 °C,,
Time,Temperature,Heat Flow (Normalized)
min,°C,W/g
22.51,374.688,-0.436111
22.5117,374.688,-0.436103
22.5133,374.688,-0.436099
22.515,374.688,-0.436094
22.5167,374.688,-0.436094
22.5183,374.688,-0.436084
22.52,374.688,-0.436067
22.5217,374.688,-0.436053
22.5233,374.688,-0.436055
22.525,374.688,-0.436052
22.5267,374.687,-0.436062
22.5283,374.687,-0.436066
22.53,374.687,-0.436064
22.5317,374.687,-0.436058
22.5333,374.686,-0.436045
22.535,374.686,-0.436028
22.5367,374.685,-0.435997
22.5383,374.684,-0.435964
22.54,374.683,-0.435932
22.5417,374.682,-0.435885
22.5433,374.681,-0.435833
22.545,374.68,-0.435789
22.5467,374.679,-0.435737
22.5483,374.678,-0.435591
22.55,374.676,-0.43535
22.5517,374.674,-0.435097
22.5533,374.673,-0.434777
22.555,374.671,-0.434485
22.5567,374.669,-0.434218
22.5583,374.668,-0.433913
22.56,374.665,-0.433582
22.5617,374.663,-0.433345
22.5633,374.66,-0.433278
22.565,374.657,-0.433219
22.5667,374.655,-0.433158
22.5683,374.651,-0.433097
22.57,374.648,-0.433044
22.5717,374.645,-0.432991
22.5733,374.642,-0.432948
22.575,374.638,-0.432907
22.5767,374.634,-0.43287
22.5783,374.63,-0.432847
22.58,374.626,-0.432824
22.5817,374.621,-0.432806
22.5833,374.616,-0.432796
22.585,374.612,-0.43279
22.5867,374.606,-0.43281
22.5883,374.601,-0.432833
22.59,374.596,-0.432862
22.5917,374.59,-0.432933
22.5933,374.584,-0.432978
22.595,374.578,-0.433016
22.5967,374.572,-0.433033
22.5983,374.565,-0.433037
22.6,374.558,-0.433029
22.6017,374.551,-0.433015
22.6033,374.544,-0.43299
22.605,374.537,-0.432946
22.6067,374.53,-0.432844
22.6083,374.522,-0.432633
22.61,374.514,-0.432331
22.6117,374.506,-0.431801
22.6133,374.498,-0.430932
22.615,374.489,-0.429429
22.6167,374.48,-0.426537
22.6183,374.472,-0.422545
22.62,374.462,-0.417615
22.6217,374.454,-0.410417
22.6233,374.444,-0.40296
22.625,374.435,-0.393953
22.6267,374.425,-0.385954
22.6283,374.416,-0.37822
22.63,374.406,-0.370791
22.6317,374.396,-0.361973
22.6333,374.385,-0.354867
22.635,374.375,-0.348235
22.6367,374.365,-0.342462
22.6383,374.354,-0.335562
22.64,374.344,-0.328138
22.6417,374.332,-0.321432
22.6433,374.322,-0.315644
22.645,374.311,-0.309872
22.6467,374.299,-0.303894
22.6483,374.288,-0.297521
22.65,374.276,-0.290159
22.6517,374.265,-0.281592
22.6533,374.253,-0.27354
22.655,374.241,-0.266429
22.6567,374.229,-0.259307
22.6583,374.217,-0.252116
22.66,374.205,-0.244716
22.6617,374.193,-0.238017
22.6633,374.18,-0.23125
22.665,374.168,-0.225147
22.6667,374.156,-0.219427
22.6683,374.143,-0.212496
22.67,374.13,-0.206427
22.6717,374.118,-0.198524
22.6733,374.105,-0.190711
22.675,374.092,-0.183311
22.6767,374.079,-0.176343
22.6783,374.066,-0.169737
22.68,374.053,-0.163925
22.6817,374.039,-0.157251
22.6833,374.026,-0.151728
22.685,374.012,-0.146035
22.6867,373.999,-0.140322
22.6883,373.986,-0.135119
22.69,373.972,-0.130613
22.6917,373.958,-0.124199
22.6933,373.945,-0.117617
22.695,373.931,-0.111278
22.6967,373.918,-0.105772
22.6983,373.904,-0.100796
22.7,373.89,-0.0937111
22.7017,373.876,-0.0880984
22.7033,373.862,-0.0829338
22.705,373.848,-0.0777026
22.7067,373.833,-0.0726012
22.7083,373.819,-0.0684768
22.71,373.805,-0.0630622
22.7117,373.791,-0.0576874
22.7133,373.776,-0.0520144
22.715,373.762,-0.0475255
22.7167,373.748,-0.043154
22.7183,373.733,-0.0385691
22.72,373.718,-0.0340446
22.7217,373.704,-0.0297405
22.7233,373.689,-0.025868
22.725,373.675,-0.0208118
22.7267,373.66,-0.0162181
22.7283,373.645,-0.0132085
22.73,373.63,-0.00914277
22.7317,373.616,-0.00483696
22.7333,373.601,0.00033325
22.735,373.586,0.00476974
22.7367,373.571,0.00898503
22.7383,373.556,0.0137838
22.74,373.542,0.0173772
22.7417,373.526,0.0212313
22.7433,373.511,0.0248765
22.745,373.496,0.0292707
22.7467,373.481,0.0324643
22.7483,373.466,0.0368293
22.75,373.451,0.0389422
22.7517,373.435,0.0442044
22.7533,373.42,0.0484561
22.755,373.405,0.0526848
22.7567,373.389,0.0553149
22.7583,373.374,0.0580579
22.76,373.359,0.0603171
22.7617,373.343,0.0635843
22.7633,373.328,0.0666441
22.765,373.312,0.0693241
22.7667,373.297,0.0717894
22.7683,373.282,0.0738784
22.77,373.267,0.0764135
22.7717,373.251,0.0801792
22.7733,373.235,0.0826307
22.775,373.22,0.0864524
22.7767,373.204,0.0891512
22.7783,373.189,0.0916215
22.78,373.173,0.0959055
22.7817,373.157,0.0984408
22.7833,373.141,0.102253
22.785,373.126,0.105259
22.7867,373.11,0.106325
22.7883,373.095,0.10786
22.79,373.079,0.108699
22.7917,373.063,0.111334
22.7933,373.048,0.113273
22.795,373.032,0.116658
22.7967,373.016,0.118451
22.7983,373,0.120232
22.8,372.984,0.121622
22.8017,372.969,0.12434
22.8033,372.953,0.126075
22.805,372.938,0.128797
22.8067,372.922,0.130704
22.8083,372.906,0.132462
22.81,372.89,0.134252
22.8117,372.875,0.136626
22.8133,372.858,0.140597
22.815,372.842,0.142986
22.8167,372.827,0.144753
22.8183,372.811,0.145833
22.82,372.795,0.147636
22.8217,372.779,0.149696
22.8233,372.763,0.151179
22.825,372.747,0.152642
22.8267,372.731,0.154664
22.8283,372.715,0.156674
22.83,372.699,0.15839
22.8317,372.683,0.160178
22.8333,372.667,0.160633
22.835,372.651,0.162159
22.8367,372.635,0.163178
22.8383,372.619,0.163756
22.84,372.603,0.164424
22.8417,372.587,0.165771
22.8433,372.571,0.167181
22.845,372.555,0.169194
22.8467,372.539,0.170445
22.8483,372.523,0.172144
22.85,372.506,0.172747
22.8517,372.49,0.173589
22.8533,372.474,0.174808
22.855,372.458,0.176343
22.8567,372.442,0.177413
22.8583,372.426,0.178075
22.86,372.41,0.179686
22.8617,372.394,0.181169
22.8633,372.378,0.182772
22.865,372.362,0.184264
22.8667,372.346,0.185187
22.8683,372.33,0.185929
22.87,372.313,0.18674
22.8717,372.297,0.18721
22.8733,372.281,0.187795
22.875,372.265,0.188152
22.8767,372.249,0.188651
22.8783,372.232,0.189464
22.88,372.216,0.190283
22.8817,372.2,0.191437
22.8833,372.184,0.192537
22.885,372.168,0.193714
22.8867,372.152,0.194781
22.8883,372.136,0.196052
22.89,372.12,0.19711
22.8917,372.103,0.197769
22.8933,372.087,0.198227
22.895,372.071,0.198769
22.8967,372.055,0.199319
22.8983,372.039,0.200039
22.9,372.022,0.200843
22.9017,372.006,0.201677
22.9033,371.99,0.202747
22.905,371.974,0.203953
22.9067,371.958,0.204919
22.9083,371.942,0.205934
22.91,371.926,0.206828
22.9117,371.909,0.207407
22.9133,371.893,0.208326
22.915,371.877,0.208989
22.9167,371.86,0.20956
22.9183,371.844,0.210091
22.92,371.828,0.210954
22.9217,371.812,0.211741
22.9233,371.796,0.212345
22.925,371.779,0.212731
22.9267,371.763,0.213158
22.9283,371.747,0.213539
22.93,371.731,0.213877
22.9317,371.714,0.214211
22.9333,371.698,0.214589
22.935,371.682,0.214836
22.9367,371.666,0.215276
22.9383,371.649,0.215903
22.94,371.633,0.216568
22.9417,371.617,0.217133
22.9433,371.6,0.217656
22.945,371.584,0.21801
22.9467,371.568,0.218449
22.9483,371.552,0.218808
22.95,371.536,0.219232
22.9517,371.519,0.219569
22.9533,371.503,0.219853
22.955,371.487,0.220058
22.9567,371.47,0.220325
22.9583,371.454,0.22072
22.96,371.438,0.221113
22.9617,371.422,0.221662
22.9633,371.405,0.221948
22.965,371.389,0.222533
22.9667,371.372,0.223303
22.9683,371.356,0.223953
22.97,371.34,0.224448
22.9717,371.323,0.224845
22.9733,371.307,0.225131
22.975,371.291,0.225315
22.9767,371.275,0.225519
22.9783,371.258,0.22575
22.98,371.242,0.225997
22.9817,371.226,0.22625
22.9833,371.21,0.226598
22.985,371.193,0.226967
22.9867,371.177,0.227394
22.9883,371.16,0.227832
22.99,371.144,0.228186
22.9917,371.128,0.228444
22.9933,371.111,0.228692
22.995,371.095,0.228912
22.9967,371.079,0.22907
22.9983,371.063,0.229287
23,371.046,0.229492
23.0017,371.03,0.229844
23.0033,371.014,0.23029
23.005,370.997,0.230714
23.0067,370.981,0.231238
23.0083,370.964,0.231691
23.01,370.948,0.232076
23.0117,370.932,0.23238
23.0133,370.916,0.232571
23.015,370.899,0.232688
23.0167,370.883,0.232803
23.0183,370.866,0.232944
23.02,370.85,0.233132
23.0217,370.834,0.233282
23.0233,370.818,0.23352
23.025,370.801,0.233725
23.0267,370.785,0.23392
23.0283,370.769,0.234111
23.03,370.753,0.234371
23.0317,370.736,0.23464
23.0333,370.72,0.234889
23.035,370.703,0.235208
23.0367,370.687,0.235551
23.0383,370.67,0.236014
23.04,370.654,0.236332
23.0417,370.637,0.236694
23.0433,370.621,0.236897
23.045,370.605,0.237125
23.0467,370.589,0.237297
23.0483,370.572,0.237433
23.05,370.556,0.237619
23.0517,370.539,0.237858
23.0533,370.523,0.238058
23.055,370.507,0.238282
23.0567,370.49,0.238532
23.0583,370.474,0.238652
23.06,370.458,0.238832
23.0617,370.442,0.238975
23.0633,370.426,0.239142
23.065,370.409,0.239352
23.0667,370.392,0.239602
23.0683,370.376,0.239803
23.07,370.359,0.240014
23.0717,370.343,0.240234
23.0733,370.327,0.240457
23.075,370.31,0.240597
23.0767,370.294,0.240794
23.0783,370.278,0.241057
23.08,370.261,0.241314
23.0817,370.245,0.241513
23.0833,370.228,0.241633
23.085,370.212,0.241756
23.0867,370.196,0.241882
23.0883,370.179,0.242013
23.09,370.162,0.242126
23.0917,370.146,0.242255
23.0933,370.13,0.242349
23.095,370.113,0.242486
23.0967,370.097,0.242575
23.0983,370.08,0.242669
23.1,370.064,0.242775
23.1017,370.048,0.242881
23.1033,370.031,0.243037
23.105,370.015,0.243269
23.1067,369.999,0.24348
23.1083,369.982,0.243801
23.11,369.966,0.244187
23.1117,369.949,0.244477
23.1133,369.933,0.244711
23.115,369.916,0.245016
23.1167,369.9,0.245249
23.1183,369.884,0.245438
23.12,369.867,0.245538
23.1217,369.851,0.245641
23.1233,369.835,0.24574
23.125,369.818,0.245881
23.1267,369.802,0.24604
23.1283,369.786,0.246208
23.13,369.769,0.24634
23.1317,369.753,0.246481
23.1333,369.736,0.246616
23.135,369.72,0.246761
23.1367,369.703,0.246872
23.1383,369.687,0.246982
23.14,369.67,0.247094
23.1417,369.654,0.24724
23.1433,369.637,0.247394
23.145,369.621,0.247748
23.1467,369.605,0.24801
23.1483,369.588,0.248399
23.15,369.572,0.248716
23.1517,369.556,0.248877
23.1533,369.539,0.249007
23.155,369.523,0.249118
23.1567,369.506,0.249328
23.1583,369.49,0.249523
23.16,369.474,0.249721
23.1617,369.457,0.249828
23.1633,369.441,0.249994
23.165,369.425,0.250097
23.1667,369.408,0.250271
23.1683,369.392,0.250501
23.17,369.375,0.250766
23.1717,369.359,0.251156
23.1733,369.342,0.25152
23.175,369.326,0.251875
23.1767,369.31,0.252103
23.1783,369.293,0.25232
23.18,369.276,0.252439
23.1817,369.26,0.252558
23.1833,369.244,0.252672
23.185,369.227,0.252787
23.1867,369.211,0.252909
23.1883,369.194,0.253031
23.19,369.178,0.25315
23.1917,369.161,0.25332
23.1933,369.145,0.253497
23.195,369.129,0.253795
23.1967,369.112,0.254
23.1983,369.096,0.254172
23.2,369.079,0.254349
23.2017,369.063,0.254476
23.2033,369.046,0.254596
23.205,369.03,0.254715
23.2067,369.013,0.254831
23.2083,368.997,0.254952
23.21,368.98,0.255074
23.2117,368.964,0.255196
23.2133,368.947,0.255325
23.215,368.931,0.255452
23.2167,368.915,0.255572
23.2183,368.898,0.255695
23.22,368.882,0.255816
23.2217,368.865,0.255934
23.2233,368.849,0.256055
23.225,368.832,0.256174
23.2267,368.816,0.256299
23.2283,368.8,0.256429
23.23,368.783,0.256634
23.2317,368.767,0.256868
23.2333,368.75,0.257232
23.235,368.734,0.257418
23.2367,368.717,0.257558
23.2383,368.701,0.25772
23.24,368.684,0.257858
23.2417,368.668,0.25799
23.2433,368.651,0.258121
23.245,368.635,0.258248
23.2467,368.618,0.258369
23.2483,368.602,0.258521
23.25,368.585,0.258649
23.2517,368.569,0.258777
23.2533,368.552,0.258901
23.255,368.536,0.259024
23.2567,368.519,0.259149
23.2583,368.503,0.259283
23.26,368.486,0.259419
23.2617,368.47,0.259554
23.2633,368.453,0.259691
23.265,368.437,0.259827
23.2667,368.421,0.259959
23.2683,368.404,0.260123
23.27,368.388,0.260266
23.2717,368.371,0.260452
23.2733,368.355,0.26062
23.275,368.339,0.260762
23.2767,368.322,0.260906
23.2783,368.305,0.26109
23.28,368.289,0.261289
23.2817,368.272,0.261455
23.2833,368.255,0.261633
23.285,368.239,0.261781
23.2867,368.223,0.261927
23.2883,368.206,0.262063
23.29,368.19,0.262201
23.2917,368.173,0.262341
23.2933,368.157,0.262478
23.295,368.14,0.262627
23.2967,368.124,0.262753
23.2983,368.107,0.262888
23.3,368.09,0.263031
23.3017,368.074,0.263174
23.3033,368.058,0.263316
23.305,368.041,0.263449
23.3067,368.025,0.263583
23.3083,368.008,0.263717
23.31,367.992,0.263853
23.3117,367.975,0.263987
23.3133,367.959,0.264117
23.315,367.942,0.264242
23.3167,367.926,0.264373
23.3183,367.909,0.264509
23.32,367.892,0.264647
23.3217,367.876,0.264785
23.3233,367.859,0.264913
23.325,367.843,0.265045
23.3267,367.827,0.265178
23.3283,367.81,0.265321
23.33,367.794,0.265471
23.3317,367.777,0.26562
23.3333,367.761,0.265765
23.335,367.744,0.265908
23.3367,367.727,0.266051
23.3383,367.711,0.266202
23.34,367.695,0.266346
23.3417,367.678,0.266483
23.3433,367.661,0.266609
23.345,367.645,0.266733
23.3467,367.628,0.266865
23.3483,367.612,0.267004
23.35,367.596,0.267155
23.3517,367.579,0.267304
23.3533,367.563,0.267455
23.355,367.547,0.267604
23.3567,367.53,0.267751
23.3583,367.514,0.267888
23.36,367.498,0.268017
23.3617,367.481,0.268136
23.3633,367.464,0.268259
23.365,367.448,0.268388
23.3667,367.431,0.26852
23.3683,367.414,0.268659
23.37,367.398,0.268803
23.3717,367.381,0.268988
23.3733,367.365,0.269137
23.375,367.348,0.26928
23.3767,367.332,0.269418
23.3783,367.315,0.269545
23.38,367.299,0.269668
23.3817,367.282,0.269798
23.3833,367.266,0.269926
23.385,367.25,0.270046
23.3867,367.233,0.270175
23.3883,367.217,0.270309
23.39,367.2,0.270446
23.3917,367.183,0.27058
23.3933,367.167,0.270712
23.395,367.15,0.27084
23.3967,367.134,0.270961
23.3983,367.117,0.271084
23.4,367.101,0.271206
23.4017,367.084,0.271334
23.4033,367.068,0.271453
23.405,367.051,0.271575
23.4067,367.034,0.271714
23.4083,367.018,0.271855
23.41,367.001,0.271995
23.4117,366.985,0.272139
23.4133,366.968,0.272282
23.415,366.952,0.272429
23.4167,366.936,0.272571
23.4183,366.919,0.272709
23.42,366.903,0.272852
23.4217,366.886,0.272996
23.4233,366.869,0.273136
23.425,366.853,0.273274
23.4267,366.836,0.273417
23.4283,366.82,0.273556
23.43,366.803,0.273704
23.4317,366.787,0.273851
23.4333,366.77,0.273993
23.435,366.753,0.274134
23.4367,366.737,0.274255
23.4383,366.72,0.274378
23.44,366.704,0.274503
23.4417,366.687,0.27463
23.4433,366.671,0.274758
23.445,366.654,0.274884
23.4467,366.637,0.275018
23.4483,366.621,0.275165
23.45,366.605,0.275307
23.4517,366.588,0.275446
23.4533,366.572,0.275587
23.455,366.555,0.275715
23.4567,366.538,0.275841
23.4583,366.522,0.275956
23.46,366.506,0.276073
23.4617,366.489,0.276193
23.4633,366.473,0.276312
23.465,366.456,0.276439
23.4667,366.439,0.276568
23.4683,366.423,0.276702
23.47,366.406,0.276844
23.4717,366.39,0.276981
23.4733,366.373,0.277126
23.475,366.357,0.27727
23.4767,366.34,0.277411
23.4783,366.323,0.277541
23.48,366.307,0.277675
23.4817,366.29,0.277806
23.4833,366.274,0.277942
23.485,366.257,0.278079
23.4867,366.24,0.278221
23.4883,366.224,0.278365
23.49,366.207,0.278507
23.4917,366.191,0.278645
23.4933,366.174,0.278779
23.495,366.157,0.278913
23.4967,366.141,0.279041
23.4983,366.125,0.279164
23.5,366.108,0.279278
23.5017,366.092,0.27939
23.5033,366.075,0.279509
23.505,366.058,0.279621
23.5067,366.042,0.27974
23.5083,366.025,0.279861
23.51,366.009,0.279979
23.5117,365.993,0.280091
23.5133,365.976,0.280207
23.515,365.959,0.280321
23.5167,365.943,0.280442
23.5183,365.926,0.280557
23.52,365.91,0.280668
23.5217,365.893,0.280788
23.5233,365.877,0.280907
23.525,365.861,0.281031
23.5267,365.844,0.281155
23.5283,365.828,0.281283
23.53,365.811,0.281402
23.5317,365.794,0.28152
23.5333,365.777,0.281639
23.535,365.761,0.28176
23.5367,365.744,0.281876
23.5383,365.728,0.281996
23.54,365.711,0.282116
23.5417,365.695,0.282238
23.5433,365.678,0.28236
23.545,365.662,0.282477
23.5467,365.646,0.282601
23.5483,365.629,0.282726
23.55,365.612,0.282847
23.5517,365.596,0.282962
23.5533,365.579,0.283082
23.555,365.563,0.283202
23.5567,365.546,0.283327
23.5583,365.529,0.283451
23.56,365.513,0.283572
23.5617,365.496,0.283694
23.5633,365.48,0.283817
23.565,365.463,0.283944
23.5667,365.447,0.284083
23.5683,365.43,0.284216
23.57,365.414,0.284342
23.5717,365.397,0.284462
23.5733,365.381,0.284585
23.575,365.364,0.284707
23.5767,365.347,0.284824
23.5783,365.331,0.284938
23.58,365.314,0.285051
23.5817,365.298,0.285159
23.5833,365.281,0.285269
23.585,365.264,0.285375
23.5867,365.248,0.28548
23.5883,365.232,0.285579
23.59,365.215,0.285677
23.5917,365.199,0.28578
23.5933,365.182,0.285888
23.595,365.165,0.286007
23.5967,365.149,0.286123
23.5983,365.132,0.286234
23.6,365.115,0.28635
23.6017,365.099,0.286473
23.6033,365.082,0.286587
23.605,365.066,0.286706
23.6067,365.049,0.286819
23.6083,365.033,0.286938
23.61,365.016,0.287058
23.6117,364.999,0.28718
23.6133,364.983,0.287299
23.615,364.966,0.287414
23.6167,364.95,0.287522
23.6183,364.933,0.287623
23.62,364.917,0.287722
23.6217,364.9,0.287818
23.6233,364.884,0.287916
23.625,364.867,0.288013
23.6267,364.85,0.288122
23.6283,364.834,0.28823
23.63,364.817,0.288341
23.6317,364.801,0.288454
23.6333,364.785,0.28858
23.635,364.768,0.288705
23.6367,364.751,0.28883
23.6383,364.734,0.288946
23.64,364.718,0.289056
23.6417,364.701,0.289167
23.6433,364.685,0.289281
23.645,364.668,0.289392
23.6467,364.652,0.289493
23.6483,364.635,0.2896
23.65,364.618,0.289708
23.6517,364.602,0.289809
23.6533,364.585,0.2899
23.655,364.568,0.289994
23.6567,364.552,0.290079
23.6583,364.535,0.290162
23.66,364.519,0.290242
23.6617,364.502,0.290326
23.6633,364.486,0.290411
23.665,364.469,0.290497
23.6667,364.452,0.290588
23.6683,364.436,0.290678
23.67,364.419,0.290768
23.6717,364.403,0.290862
23.6733,364.386,0.290962
23.675,364.369,0.291077
23.6767,364.353,0.291196
23.6783,364.336,0.291309
23.68,364.32,0.291419
23.6817,364.303,0.291527
23.6833,364.287,0.291635
23.685,364.27,0.29174
23.6867,364.254,0.291845
23.6883,364.237,0.29194
23.69,364.22,0.292026
23.6917,364.204,0.292117
23.6933,364.187,0.292211
23.695,364.17,0.292312
23.6967,364.154,0.292415
23.6983,364.137,0.292516
23.7,364.121,0.292617
23.7017,364.104,0.292723
23.7033,364.087,0.292821
23.705,364.071,0.292927
23.7067,364.054,0.293032
23.7083,364.038,0.29313
23.71,364.021,0.293227
23.7117,364.005,0.293322
23.7133,363.988,0.293412
23.715,363.971,0.293502
23.7167,363.955,0.293592
23.7183,363.938,0.293684
23.72,363.922,0.293768
23.7217,363.905,0.293852
23.7233,363.888,0.29394
23.725,363.872,0.294031
23.7267,363.856,0.29412
23.7283,363.839,0.294214
23.73,363.822,0.29431
23.7317,363.806,0.294395
23.7333,363.789,0.294477
23.735,363.772,0.294554
23.7367,363.755,0.294633
23.7383,363.739,0.294719
23.74,363.722,0.294806
23.7417,363.705,0.294893
23.7433,363.689,0.294982
23.745,363.673,0.295072
23.7467,363.656,0.295161
23.7483,363.64,0.295252
23.75,363.623,0.295345
23.7517,363.606,0.295424
23.7533,363.59,0.295501
23.755,363.573,0.295576
23.7567,363.557,0.295652
23.7583,363.54,0.295733
23.76,363.524,0.295813
23.7617,363.507,0.295894
23.7633,363.491,0.295974
23.765,363.474,0.29605
23.7667,363.457,0.29613
23.7683,363.441,0.296217
23.77,363.424,0.296304
23.7717,363.408,0.296388
23.7733,363.391,0.296477
23.775,363.375,0.296562
23.7767,363.358,0.296645
23.7783,363.341,0.29673
23.78,363.325,0.29681
23.7817,363.308,0.29689
23.7833,363.292,0.296975
23.785,363.275,0.297058
23.7867,363.258,0.297141
23.7883,363.241,0.297231
23.79,363.225,0.297328
23.7917,363.208,0.297417
23.7933,363.192,0.297503
23.795,363.175,0.297589
23.7967,363.159,0.297673
23.7983,363.142,0.297752
23.8,363.125,0.297826
23.8017,363.109,0.297899
23.8033,363.092,0.297969
23.805,363.076,0.298042
23.8067,363.059,0.298113
23.8083,363.042,0.298187
